LabVIEW Measurement	
Writer_Version	2
Reader_Version	2
Separator	Tab
Decimal_Separator	.
Multi_Headings	No
X_Columns	No
Time_Pref	Absolute
Operator	orzr
Date	2022/04/28
Time	13:07:32.1649233499428492183
***End_of_Header***	
	
Channels	1	
Samples	20000	
Date	2022/04/28	
Time	13:07:32.1649233499428492183	
Y_Unit_Label	Volts	
X_Dimension	Time	
X0	0.0000000000000000E+0	
Delta_X	0.001000	
***End_of_Header***		
X_Value	Voltage	Comment
	0.548743
	0.547455
	0.552287
	0.551965
	0.549710
	0.548099
	0.549710
	0.552609
	0.549710
	0.547777
	0.551320
	0.553575
	0.548743
	0.548099
	0.550676
	0.553575
	0.550354
	0.550032
	0.552287
	0.554219
	0.551320
	0.548743
	0.551642
	0.554219
	0.550354
	0.548421
	0.552609
	0.550998
	0.552609
	0.548743
	0.551965
	0.552931
	0.553575
	0.547455
	0.550998
	0.552609
	0.551320
	0.548421
	0.549710
	0.554542
	0.553897
	0.552287
	0.550354
	0.555186
	0.553575
	0.551965
	0.550354
	0.553253
	0.552609
	0.549065
	0.550998
	0.553253
	0.553253
	0.549065
	0.551642
	0.552931
	0.556152
	0.554219
	0.551320
	0.554864
	0.554542
	0.554864
	0.551320
	0.555186
	0.555830
	0.554864
	0.551642
	0.552609
	0.555508
	0.554542
	0.550998
	0.551642
	0.556797
	0.554219
	0.552931
	0.553253
	0.557119
	0.556797
	0.553575
	0.554542
	0.555830
	0.558729
	0.554219
	0.554219
	0.556474
	0.557763
	0.555830
	0.553575
	0.557119
	0.556152
	0.557441
	0.551965
	0.554219
	0.555508
	0.557763
	0.553897
	0.555508
	0.559374
	0.557119
	0.554864
	0.553897
	0.558085
	0.557119
	0.556797
	0.554219
	0.559696
	0.558407
	0.553897
	0.554542
	0.557763
	0.557441
	0.553575
	0.555186
	0.556797
	0.558729
	0.554864
	0.557441
	0.559696
	0.559374
	0.554864
	0.558407
	0.561628
	0.559696
	0.556474
	0.558085
	0.560018
	0.557119
	0.556474
	0.557119
	0.560340
	0.558085
	0.555830
	0.557763
	0.559051
	0.559374
	0.555508
	0.560018
	0.559374
	0.558407
	0.554864
	0.559696
	0.560984
	0.559374
	0.558085
	0.557441
	0.561306
	0.560984
	0.557441
	0.557441
	0.561628
	0.561306
	0.558085
	0.558729
	0.558729
	0.560662
	0.558085
	0.557119
	0.560662
	0.560662
	0.558085
	0.557763
	0.561628
	0.561628
	0.561306
	0.557441
	0.561628
	0.561306
	0.561306
	0.556474
	0.561306
	0.560984
	0.560018
	0.557763
	0.561951
	0.562595
	0.557763
	0.558085
	0.561306
	0.562595
	0.559051
	0.559696
	0.560984
	0.564205
	0.562273
	0.558729
	0.561628
	0.563239
	0.560018
	0.558407
	0.563883
	0.561628
	0.560984
	0.556797
	0.562273
	0.561951
	0.562273
	0.558085
	0.563239
	0.564850
	0.562273
	0.559696
	0.562917
	0.564850
	0.560662
	0.562273
	0.563239
	0.565172
	0.561951
	0.559051
	0.562273
	0.563561
	0.562273
	0.558407
	0.563239
	0.564528
	0.563883
	0.559051
	0.564850
	0.564205
	0.562917
	0.560340
	0.564528
	0.566138
	0.563883
	0.561951
	0.564850
	0.568071
	0.561951
	0.561628
	0.566782
	0.565172
	0.561628
	0.560340
	0.564850
	0.565816
	0.563561
	0.562273
	0.566138
	0.565494
	0.563883
	0.562273
	0.564850
	0.567749
	0.563561
	0.563239
	0.568393
	0.567427
	0.564528
	0.563239
	0.566460
	0.566460
	0.566138
	0.561306
	0.566460
	0.566460
	0.563561
	0.561628
	0.565172
	0.566138
	0.564528
	0.564205
	0.565172
	0.568393
	0.566138
	0.564528
	0.566782
	0.568715
	0.566138
	0.562917
	0.568715
	0.568393
	0.566460
	0.562273
	0.567427
	0.567105
	0.566460
	0.564205
	0.568715
	0.568393
	0.564850
	0.563561
	0.565816
	0.569682
	0.564205
	0.566782
	0.569037
	0.568715
	0.565816
	0.566782
	0.571614
	0.568393
	0.566138
	0.563883
	0.568715
	0.568393
	0.565816
	0.564205
	0.567427
	0.570004
	0.566460
	0.566460
	0.569360
	0.569360
	0.567749
	0.565816
	0.570004
	0.570970
	0.568393
	0.564528
	0.570970
	0.570326
	0.568393
	0.565494
	0.569037
	0.570004
	0.567105
	0.568393
	0.568715
	0.570004
	0.566782
	0.567105
	0.571614
	0.572581
	0.570004
	0.567427
	0.571937
	0.569682
	0.566460
	0.565816
	0.570648
	0.571292
	0.569037
	0.568393
	0.570004
	0.571937
	0.568071
	0.566782
	0.571937
	0.570326
	0.569360
	0.566460
	0.571937
	0.572903
	0.570970
	0.568393
	0.570326
	0.572259
	0.570004
	0.569360
	0.570648
	0.573225
	0.570326
	0.567749
	0.571292
	0.572581
	0.573225
	0.568715
	0.570004
	0.570326
	0.571937
	0.569360
	0.569360
	0.573869
	0.574836
	0.570970
	0.568715
	0.572581
	0.571614
	0.570970
	0.568071
	0.572903
	0.572903
	0.571614
	0.568715
	0.571292
	0.574191
	0.570004
	0.570004
	0.572903
	0.573547
	0.572903
	0.569360
	0.573869
	0.574514
	0.575158
	0.570004
	0.572581
	0.574514
	0.573547
	0.570326
	0.570970
	0.576446
	0.572259
	0.571292
	0.572903
	0.574836
	0.572903
	0.569682
	0.571292
	0.574836
	0.573547
	0.569682
	0.573547
	0.574836
	0.575480
	0.570970
	0.574514
	0.574836
	0.573547
	0.571292
	0.574514
	0.575158
	0.571937
	0.572903
	0.574514
	0.576124
	0.573869
	0.571614
	0.576124
	0.575158
	0.574836
	0.571937
	0.576446
	0.575480
	0.576124
	0.572259
	0.575158
	0.575802
	0.574191
	0.572259
	0.573547
	0.578379
	0.575158
	0.572903
	0.574514
	0.577735
	0.576124
	0.573225
	0.574514
	0.575158
	0.577413
	0.572903
	0.574514
	0.574836
	0.575480
	0.571937
	0.573225
	0.578379
	0.576446
	0.573869
	0.572903
	0.576768
	0.574836
	0.572581
	0.574191
	0.577413
	0.577735
	0.573225
	0.574191
	0.576124
	0.577735
	0.572903
	0.574191
	0.578379
	0.578057
	0.575802
	0.573547
	0.576768
	0.578057
	0.577735
	0.572581
	0.574836
	0.577091
	0.575158
	0.572259
	0.576446
	0.578057
	0.577735
	0.576124
	0.572903
	0.578701
	0.577735
	0.577413
	0.573225
	0.578057
	0.578379
	0.577735
	0.575802
	0.575802
	0.579990
	0.578057
	0.576124
	0.572581
	0.578701
	0.579668
	0.577091
	0.574514
	0.576446
	0.578057
	0.576768
	0.577091
	0.574514
	0.578701
	0.579990
	0.577091
	0.575802
	0.577735
	0.579668
	0.576124
	0.576446
	0.578057
	0.579668
	0.577413
	0.573869
	0.576124
	0.578701
	0.580312
	0.575802
	0.577735
	0.578057
	0.578701
	0.574836
	0.576768
	0.580634
	0.577735
	0.576124
	0.574836
	0.579023
	0.578057
	0.574836
	0.574836
	0.579023
	0.579346
	0.574191
	0.578701
	0.579668
	0.579990
	0.576124
	0.578057
	0.579346
	0.579346
	0.577735
	0.577091
	0.581600
	0.579990
	0.577413
	0.575802
	0.581278
	0.579346
	0.576124
	0.577413
	0.581278
	0.579668
	0.576768
	0.579346
	0.579990
	0.581600
	0.576768
	0.578379
	0.579668
	0.581600
	0.576768
	0.579346
	0.582889
	0.582889
	0.579668
	0.578057
	0.582567
	0.580312
	0.579668
	0.578057
	0.580956
	0.580634
	0.579668
	0.578057
	0.580634
	0.582567
	0.577735
	0.577413
	0.580634
	0.581278
	0.579990
	0.580312
	0.583211
	0.581600
	0.581600
	0.578057
	0.583211
	0.582245
	0.580312
	0.579023
	0.581923
	0.582889
	0.579990
	0.579668
	0.581600
	0.583211
	0.580956
	0.577735
	0.579023
	0.581600
	0.581278
	0.577735
	0.583855
	0.583855
	0.582889
	0.579346
	0.582567
	0.582889
	0.582245
	0.579990
	0.583211
	0.582889
	0.582245
	0.580634
	0.581278
	0.584177
	0.581923
	0.579346
	0.581278
	0.584822
	0.583211
	0.580312
	0.581600
	0.583855
	0.584500
	0.579668
	0.580956
	0.582245
	0.584177
	0.581278
	0.577413
	0.579668
	0.582889
	0.583533
	0.580312
	0.583211
	0.584177
	0.584822
	0.580956
	0.579990
	0.583211
	0.586432
	0.582567
	0.579990
	0.581923
	0.584500
	0.585144
	0.581923
	0.583855
	0.583855
	0.585466
	0.580634
	0.580956
	0.583855
	0.585466
	0.582567
	0.580634
	0.584822
	0.584177
	0.584177
	0.580634
	0.581923
	0.584822
	0.585788
	0.582567
	0.580956
	0.584177
	0.584822
	0.584177
	0.580634
	0.585144
	0.584500
	0.583855
	0.580634
	0.583533
	0.585466
	0.584822
	0.580956
	0.582889
	0.586754
	0.583211
	0.581600
	0.584177
	0.585466
	0.582889
	0.580956
	0.583211
	0.585144
	0.586110
	0.581600
	0.583211
	0.584822
	0.585788
	0.580634
	0.583533
	0.584500
	0.586754
	0.582889
	0.584500
	0.585788
	0.586432
	0.583533
	0.583855
	0.587077
	0.585466
	0.583211
	0.581923
	0.586754
	0.585788
	0.583855
	0.581278
	0.585788
	0.585144
	0.584177
	0.580956
	0.584822
	0.584822
	0.582889
	0.580312
	0.582567
	0.588365
	0.586110
	0.584177
	0.584822
	0.587721
	0.584500
	0.581278
	0.582245
	0.587077
	0.585466
	0.582889
	0.580956
	0.585144
	0.587399
	0.584822
	0.583855
	0.583855
	0.587077
	0.584822
	0.583855
	0.583211
	0.587399
	0.588043
	0.582889
	0.582567
	0.585466
	0.586110
	0.582889
	0.582889
	0.584822
	0.586432
	0.583533
	0.582889
	0.585466
	0.587399
	0.584822
	0.581600
	0.585144
	0.586754
	0.585788
	0.581923
	0.586754
	0.587721
	0.588365
	0.584500
	0.584177
	0.585144
	0.588043
	0.583533
	0.584177
	0.586754
	0.586754
	0.583533
	0.583855
	0.588687
	0.586754
	0.583533
	0.582567
	0.587077
	0.585144
	0.586432
	0.582567
	0.586432
	0.587077
	0.587077
	0.581923
	0.585788
	0.586110
	0.586110
	0.583211
	0.584822
	0.585788
	0.587399
	0.584822
	0.583855
	0.588043
	0.588043
	0.585788
	0.582567
	0.589332
	0.588043
	0.585466
	0.584500
	0.587721
	0.587721
	0.586432
	0.583855
	0.586110
	0.588365
	0.586432
	0.583855
	0.585144
	0.588687
	0.586754
	0.586110
	0.584500
	0.589976
	0.587721
	0.586754
	0.583855
	0.585466
	0.588687
	0.586754
	0.585144
	0.585144
	0.589976
	0.587077
	0.584822
	0.582889
	0.587399
	0.585788
	0.586110
	0.582245
	0.587721
	0.588043
	0.586754
	0.583211
	0.586432
	0.589332
	0.588687
	0.587077
	0.585788
	0.588687
	0.589009
	0.587721
	0.583533
	0.586754
	0.588687
	0.588687
	0.584500
	0.586432
	0.587077
	0.588687
	0.586110
	0.586754
	0.587077
	0.589976
	0.587721
	0.584500
	0.586754
	0.589009
	0.588687
	0.584177
	0.588365
	0.587721
	0.589332
	0.585144
	0.585788
	0.588365
	0.590298
	0.586754
	0.584177
	0.587721
	0.589009
	0.589009
	0.585144
	0.588365
	0.588043
	0.589976
	0.587077
	0.586432
	0.588365
	0.590298
	0.586754
	0.584822
	0.588365
	0.589332
	0.590620
	0.586432
	0.589332
	0.589976
	0.589332
	0.585144
	0.586754
	0.589976
	0.590298
	0.586754
	0.585788
	0.589976
	0.589009
	0.588687
	0.588365
	0.590298
	0.588687
	0.587399
	0.585144
	0.589654
	0.590298
	0.588365
	0.585788
	0.588365
	0.589976
	0.587077
	0.586432
	0.589654
	0.589654
	0.587077
	0.587399
	0.587399
	0.591586
	0.589976
	0.587399
	0.588365
	0.590942
	0.589654
	0.586110
	0.587077
	0.589976
	0.589654
	0.586110
	0.587399
	0.588687
	0.590620
	0.587399
	0.587399
	0.589009
	0.590620
	0.585788
	0.587077
	0.589976
	0.590620
	0.589009
	0.587077
	0.590298
	0.589976
	0.588043
	0.584822
	0.589976
	0.589009
	0.589654
	0.584177
	0.587721
	0.589654
	0.590298
	0.587399
	0.589009
	0.589976
	0.590298
	0.588043
	0.586110
	0.590620
	0.591586
	0.588687
	0.586432
	0.591264
	0.589654
	0.588043
	0.584500
	0.590298
	0.588687
	0.587721
	0.584500
	0.589332
	0.589332
	0.587721
	0.585788
	0.590298
	0.590298
	0.587399
	0.588043
	0.592231
	0.591909
	0.586432
	0.589976
	0.591264
	0.590942
	0.585466
	0.588043
	0.589009
	0.591909
	0.587721
	0.588687
	0.591264
	0.591264
	0.587399
	0.589654
	0.592875
	0.590620
	0.588043
	0.587399
	0.592553
	0.591264
	0.590298
	0.587399
	0.591586
	0.590298
	0.589332
	0.587399
	0.591586
	0.592231
	0.587399
	0.587399
	0.589976
	0.589009
	0.584822
	0.587399
	0.589654
	0.590620
	0.587721
	0.588687
	0.590298
	0.592553
	0.589009
	0.586432
	0.590298
	0.589332
	0.587399
	0.585466
	0.590620
	0.589332
	0.588365
	0.584177
	0.590298
	0.589009
	0.589332
	0.585788
	0.589654
	0.590620
	0.589654
	0.585788
	0.590620
	0.591909
	0.590298
	0.588043
	0.589009
	0.590298
	0.590620
	0.588687
	0.587721
	0.591586
	0.589976
	0.589332
	0.585466
	0.590620
	0.591909
	0.590298
	0.586432
	0.590298
	0.589009
	0.589009
	0.588043
	0.590942
	0.591586
	0.589976
	0.587721
	0.587399
	0.591586
	0.589009
	0.587077
	0.587399
	0.591264
	0.588365
	0.588043
	0.585788
	0.590620
	0.589976
	0.588043
	0.586432
	0.590942
	0.591909
	0.588043
	0.588687
	0.591586
	0.591586
	0.588043
	0.589332
	0.590298
	0.592875
	0.589654
	0.588043
	0.589654
	0.591264
	0.588687
	0.586754
	0.589654
	0.590298
	0.588687
	0.584822
	0.590298
	0.589332
	0.590298
	0.586754
	0.588687
	0.589332
	0.590298
	0.587399
	0.588365
	0.592231
	0.591264
	0.587721
	0.585466
	0.590942
	0.589009
	0.588365
	0.586110
	0.590298
	0.589332
	0.587721
	0.586754
	0.589332
	0.592875
	0.590298
	0.588365
	0.589654
	0.591586
	0.585788
	0.585466
	0.588687
	0.589654
	0.588365
	0.586754
	0.588687
	0.589654
	0.590298
	0.585144
	0.589654
	0.589976
	0.590620
	0.585144
	0.590298
	0.589976
	0.587721
	0.585788
	0.588365
	0.590620
	0.588687
	0.586432
	0.588043
	0.591909
	0.588365
	0.586754
	0.588365
	0.592231
	0.589332
	0.587721
	0.588687
	0.590298
	0.589009
	0.585144
	0.587399
	0.590298
	0.592553
	0.587721
	0.589009
	0.589976
	0.590298
	0.586754
	0.585144
	0.588687
	0.590298
	0.588365
	0.585144
	0.589654
	0.588687
	0.588365
	0.585466
	0.589332
	0.589654
	0.589009
	0.584500
	0.589332
	0.590298
	0.590298
	0.586432
	0.588043
	0.590620
	0.587721
	0.586754
	0.585788
	0.589009
	0.587399
	0.588365
	0.583855
	0.588687
	0.589976
	0.589976
	0.585144
	0.587721
	0.588687
	0.588687
	0.586754
	0.585466
	0.587721
	0.589976
	0.588687
	0.583533
	0.586754
	0.590298
	0.589332
	0.585144
	0.586432
	0.586754
	0.589332
	0.584177
	0.585788
	0.589009
	0.590942
	0.586110
	0.585466
	0.588043
	0.589976
	0.587721
	0.585788
	0.588365
	0.589332
	0.588043
	0.584822
	0.585788
	0.588687
	0.590298
	0.584500
	0.584822
	0.587721
	0.589332
	0.584822
	0.585144
	0.588043
	0.588365
	0.587399
	0.585466
	0.587399
	0.588043
	0.587721
	0.583533
	0.587077
	0.588687
	0.589009
	0.583855
	0.585788
	0.587721
	0.588043
	0.585144
	0.584822
	0.586432
	0.587721
	0.587399
	0.582567
	0.586754
	0.587721
	0.588365
	0.584822
	0.586754
	0.586432
	0.588043
	0.584177
	0.585466
	0.587721
	0.588687
	0.585466
	0.583855
	0.587721
	0.587399
	0.586432
	0.583211
	0.589332
	0.587077
	0.586754
	0.582889
	0.585466
	0.587721
	0.587721
	0.584500
	0.585144
	0.589976
	0.586754
	0.584177
	0.583211
	0.588365
	0.587077
	0.586432
	0.583211
	0.585788
	0.588043
	0.586754
	0.583533
	0.585788
	0.588687
	0.585144
	0.583211
	0.584822
	0.588365
	0.587077
	0.584500
	0.585144
	0.586432
	0.585144
	0.581278
	0.584177
	0.586754
	0.586432
	0.581600
	0.584822
	0.585788
	0.587077
	0.582567
	0.584177
	0.586432
	0.585788
	0.583855
	0.583533
	0.587399
	0.586110
	0.583855
	0.584500
	0.587399
	0.585144
	0.581278
	0.582567
	0.587077
	0.584500
	0.583533
	0.582245
	0.586110
	0.587077
	0.583855
	0.583855
	0.584822
	0.587077
	0.584500
	0.582567
	0.585144
	0.586110
	0.584177
	0.581600
	0.585144
	0.585788
	0.586110
	0.581923
	0.582245
	0.584177
	0.584822
	0.580312
	0.583211
	0.584500
	0.585788
	0.582889
	0.583855
	0.585466
	0.584500
	0.582567
	0.582567
	0.586432
	0.585788
	0.583211
	0.580956
	0.585466
	0.584177
	0.581923
	0.581278
	0.588043
	0.584177
	0.583533
	0.580956
	0.586432
	0.584822
	0.586432
	0.580956
	0.585144
	0.585788
	0.584177
	0.580956
	0.584822
	0.587077
	0.584177
	0.581600
	0.582567
	0.585144
	0.583533
	0.582245
	0.580956
	0.583855
	0.581278
	0.580956
	0.581923
	0.585144
	0.581600
	0.579023
	0.583211
	0.584177
	0.582245
	0.579990
	0.585466
	0.583211
	0.582245
	0.582245
	0.584177
	0.583211
	0.582245
	0.579668
	0.585144
	0.582567
	0.579668
	0.579346
	0.583533
	0.583211
	0.580312
	0.582567
	0.584177
	0.583855
	0.579668
	0.582889
	0.583855
	0.583855
	0.580634
	0.580956
	0.584177
	0.584177
	0.579990
	0.579990
	0.584822
	0.582567
	0.581278
	0.578057
	0.583855
	0.581923
	0.582889
	0.577413
	0.582889
	0.584500
	0.584177
	0.579990
	0.580634
	0.583211
	0.581923
	0.579346
	0.579990
	0.583211
	0.582567
	0.582245
	0.578057
	0.583211
	0.584177
	0.581278
	0.578379
	0.583533
	0.585144
	0.580634
	0.580312
	0.581278
	0.584500
	0.581923
	0.580312
	0.581923
	0.583533
	0.581600
	0.577735
	0.581278
	0.581923
	0.579990
	0.577735
	0.581923
	0.582245
	0.582245
	0.578379
	0.579668
	0.580956
	0.583855
	0.577735
	0.579023
	0.581278
	0.581923
	0.577413
	0.579023
	0.582889
	0.580312
	0.579023
	0.577091
	0.580634
	0.581923
	0.581600
	0.574836
	0.579668
	0.581923
	0.582245
	0.577413
	0.578057
	0.580634
	0.581278
	0.579023
	0.578379
	0.580634
	0.582889
	0.581600
	0.577091
	0.579023
	0.580312
	0.581923
	0.576446
	0.578057
	0.580634
	0.581278
	0.578057
	0.577413
	0.578701
	0.582567
	0.581923
	0.576768
	0.578379
	0.580312
	0.579990
	0.576768
	0.580312
	0.580634
	0.581600
	0.578379
	0.578701
	0.579668
	0.581923
	0.576768
	0.576446
	0.579668
	0.580956
	0.578701
	0.578057
	0.580956
	0.581278
	0.579990
	0.576768
	0.578701
	0.580312
	0.581278
	0.575802
	0.578701
	0.580312
	0.580312
	0.577413
	0.578057
	0.579668
	0.579346
	0.576446
	0.574836
	0.578379
	0.579990
	0.577413
	0.576124
	0.580956
	0.580956
	0.579023
	0.575480
	0.579668
	0.579023
	0.580312
	0.575480
	0.578057
	0.579346
	0.579346
	0.574191
	0.579668
	0.580312
	0.579346
	0.575480
	0.577735
	0.579990
	0.578701
	0.576446
	0.576768
	0.580634
	0.579023
	0.576124
	0.574514
	0.580956
	0.579346
	0.576446
	0.575158
	0.579990
	0.577091
	0.577735
	0.574836
	0.579346
	0.579023
	0.577091
	0.572581
	0.578701
	0.577735
	0.577413
	0.572581
	0.575802
	0.578379
	0.578057
	0.577091
	0.577413
	0.578701
	0.579346
	0.576124
	0.574191
	0.578379
	0.578701
	0.575158
	0.575480
	0.579668
	0.577413
	0.575480
	0.572903
	0.577735
	0.576768
	0.577413
	0.573869
	0.578379
	0.577735
	0.576124
	0.574514
	0.579990
	0.577735
	0.575158
	0.574191
	0.578057
	0.575802
	0.574514
	0.574836
	0.576768
	0.577735
	0.575802
	0.573869
	0.576124
	0.576768
	0.575158
	0.574191
	0.576768
	0.579346
	0.575158
	0.575158
	0.576768
	0.578701
	0.574836
	0.573225
	0.574836
	0.577413
	0.575480
	0.572581
	0.576124
	0.576124
	0.573869
	0.572259
	0.577091
	0.576124
	0.574514
	0.571937
	0.576768
	0.577091
	0.576446
	0.572581
	0.578379
	0.576446
	0.574836
	0.570970
	0.574514
	0.575802
	0.574191
	0.572903
	0.577091
	0.577091
	0.575158
	0.574191
	0.574514
	0.577413
	0.575158
	0.574191
	0.574514
	0.578057
	0.574514
	0.574836
	0.576446
	0.579023
	0.574836
	0.573869
	0.576124
	0.576768
	0.574836
	0.572903
	0.574836
	0.576446
	0.574191
	0.571937
	0.576768
	0.577091
	0.574836
	0.571292
	0.576124
	0.575480
	0.576124
	0.574191
	0.577413
	0.577413
	0.576768
	0.574191
	0.576446
	0.577735
	0.576446
	0.571292
	0.574836
	0.576124
	0.574514
	0.573225
	0.573869
	0.576446
	0.574514
	0.573869
	0.572903
	0.576446
	0.575802
	0.574191
	0.573547
	0.578701
	0.576446
	0.573869
	0.573547
	0.576768
	0.574514
	0.571937
	0.572581
	0.574514
	0.575158
	0.573225
	0.572903
	0.574836
	0.578379
	0.573225
	0.572259
	0.574836
	0.574514
	0.572259
	0.571292
	0.573869
	0.574836
	0.573869
	0.571937
	0.574836
	0.576768
	0.576446
	0.570648
	0.574514
	0.574836
	0.575158
	0.570326
	0.574836
	0.572903
	0.573869
	0.571292
	0.572259
	0.576124
	0.574836
	0.571937
	0.572259
	0.575480
	0.573547
	0.572259
	0.573547
	0.576124
	0.573225
	0.570970
	0.572581
	0.575480
	0.573225
	0.570648
	0.573225
	0.574836
	0.573869
	0.569037
	0.573547
	0.575158
	0.574836
	0.569682
	0.571292
	0.573869
	0.573547
	0.570004
	0.572581
	0.574514
	0.573547
	0.569360
	0.569682
	0.573547
	0.572581
	0.570326
	0.572581
	0.575158
	0.571614
	0.570648
	0.570648
	0.574836
	0.574836
	0.570326
	0.571937
	0.574514
	0.574836
	0.567749
	0.571292
	0.573225
	0.574514
	0.570970
	0.569682
	0.572259
	0.572259
	0.570326
	0.568715
	0.573225
	0.572581
	0.570326
	0.568393
	0.574191
	0.573225
	0.569360
	0.570326
	0.572259
	0.571292
	0.567749
	0.573547
	0.572581
	0.571937
	0.568071
	0.571937
	0.573547
	0.571292
	0.568393
	0.572259
	0.572581
	0.568393
	0.570004
	0.571292
	0.572259
	0.568393
	0.570970
	0.573225
	0.572581
	0.569360
	0.569682
	0.573547
	0.571937
	0.570004
	0.568715
	0.572903
	0.571292
	0.568715
	0.570326
	0.572259
	0.570970
	0.568071
	0.571937
	0.571937
	0.573547
	0.569037
	0.570648
	0.571614
	0.573225
	0.567749
	0.567427
	0.572259
	0.571937
	0.569360
	0.566460
	0.571292
	0.570326
	0.571292
	0.567105
	0.571292
	0.571937
	0.570648
	0.566460
	0.570648
	0.572259
	0.569360
	0.568393
	0.570326
	0.571937
	0.568715
	0.566782
	0.569360
	0.570970
	0.570970
	0.566138
	0.568715
	0.570326
	0.571292
	0.565816
	0.568071
	0.570970
	0.569682
	0.567105
	0.567749
	0.571614
	0.569360
	0.569037
	0.566782
	0.571614
	0.570326
	0.567749
	0.566460
	0.571292
	0.569682
	0.565494
	0.569360
	0.569682
	0.570004
	0.566782
	0.569360
	0.569360
	0.570970
	0.565816
	0.566460
	0.570648
	0.570004
	0.566138
	0.566460
	0.570970
	0.568071
	0.567105
	0.566460
	0.571292
	0.570004
	0.566782
	0.566460
	0.569360
	0.570326
	0.565494
	0.567105
	0.569682
	0.571614
	0.566138
	0.569037
	0.569682
	0.569682
	0.566460
	0.568071
	0.570004
	0.569682
	0.566138
	0.564528
	0.570970
	0.570004
	0.566460
	0.566460
	0.570648
	0.567427
	0.568071
	0.565816
	0.569360
	0.568071
	0.567427
	0.565816
	0.570004
	0.570648
	0.567427
	0.565494
	0.568393
	0.569682
	0.566138
	0.566138
	0.566782
	0.569360
	0.567749
	0.565494
	0.563883
	0.568071
	0.569360
	0.566138
	0.566460
	0.568715
	0.568715
	0.567105
	0.567749
	0.567749
	0.570004
	0.569360
	0.565816
	0.565816
	0.569682
	0.568071
	0.565816
	0.565816
	0.569037
	0.567749
	0.564528
	0.565816
	0.567749
	0.568071
	0.564528
	0.566460
	0.567105
	0.569037
	0.565494
	0.565816
	0.567749
	0.569682
	0.566782
	0.565816
	0.564205
	0.568071
	0.567427
	0.565494
	0.562595
	0.566138
	0.568393
	0.565816
	0.565172
	0.565816
	0.568715
	0.566460
	0.564850
	0.563561
	0.569682
	0.567749
	0.565494
	0.563561
	0.567749
	0.565172
	0.563239
	0.561951
	0.566138
	0.566460
	0.565816
	0.562917
	0.567427
	0.567749
	0.563883
	0.563561
	0.565494
	0.567749
	0.564205
	0.563883
	0.564850
	0.567749
	0.565172
	0.563883
	0.565816
	0.568071
	0.564850
	0.562273
	0.565816
	0.566782
	0.565494
	0.561951
	0.566460
	0.565816
	0.567427
	0.561628
	0.562917
	0.564850
	0.565494
	0.562273
	0.564205
	0.567427
	0.564205
	0.562273
	0.562273
	0.565494
	0.563883
	0.562595
	0.561951
	0.566782
	0.565172
	0.561628
	0.562273
	0.566138
	0.566460
	0.563883
	0.563883
	0.564850
	0.566138
	0.561628
	0.561951
	0.564850
	0.566460
	0.563883
	0.562273
	0.566138
	0.564528
	0.562273
	0.560662
	0.566782
	0.563883
	0.561951
	0.562595
	0.566460
	0.563883
	0.561951
	0.565172
	0.565494
	0.564205
	0.560018
	0.564205
	0.564528
	0.564528
	0.558729
	0.566138
	0.564528
	0.564205
	0.560984
	0.565172
	0.564528
	0.561306
	0.560984
	0.563561
	0.565494
	0.560662
	0.561951
	0.564205
	0.564528
	0.559696
	0.559374
	0.563561
	0.563883
	0.560984
	0.561306
	0.563883
	0.561628
	0.560018
	0.562917
	0.566138
	0.562595
	0.560662
	0.560018
	0.563883
	0.561951
	0.557763
	0.561628
	0.564528
	0.561951
	0.559696
	0.564850
	0.562917
	0.562273
	0.559051
	0.562595
	0.561951
	0.560018
	0.560018
	0.562595
	0.563239
	0.558407
	0.560340
	0.561951
	0.561951
	0.557763
	0.562595
	0.561951
	0.561628
	0.557763
	0.560018
	0.563239
	0.560984
	0.559696
	0.559374
	0.562595
	0.561628
	0.557441
	0.558407
	0.562273
	0.561951
	0.557119
	0.560018
	0.560984
	0.561628
	0.558085
	0.559374
	0.563239
	0.561951
	0.556474
	0.559696
	0.561628
	0.560018
	0.558407
	0.561951
	0.563239
	0.559696
	0.560018
	0.560662
	0.562595
	0.557441
	0.558085
	0.560662
	0.560662
	0.560018
	0.555186
	0.561628
	0.561306
	0.558729
	0.557119
	0.561306
	0.559051
	0.557119
	0.558085
	0.560340
	0.560340
	0.556797
	0.557763
	0.559696
	0.561306
	0.554864
	0.559374
	0.559696
	0.558407
	0.554864
	0.560018
	0.560018
	0.558729
	0.557119
	0.559696
	0.560662
	0.559051
	0.556474
	0.560018
	0.562273
	0.559374
	0.558085
	0.560662
	0.560340
	0.555830
	0.555508
	0.560662
	0.557763
	0.557441
	0.556152
	0.559696
	0.558729
	0.559696
	0.554542
	0.560018
	0.560662
	0.558085
	0.556797
	0.561306
	0.560340
	0.557441
	0.556152
	0.559051
	0.560340
	0.556474
	0.555186
	0.557763
	0.558407
	0.555508
	0.554219
	0.558085
	0.562273
	0.558729
	0.554864
	0.558085
	0.557763
	0.557119
	0.554542
	0.559051
	0.559051
	0.560018
	0.554542
	0.559051
	0.558729
	0.557441
	0.553575
	0.558407
	0.557441
	0.556152
	0.554864
	0.559051
	0.558085
	0.555186
	0.555508
	0.557119
	0.559374
	0.554219
	0.556474
	0.559374
	0.559696
	0.554219
	0.555186
	0.558729
	0.557763
	0.555830
	0.555508
	0.558407
	0.556474
	0.555508
	0.553253
	0.558729
	0.556474
	0.555186
	0.554219
	0.559696
	0.555830
	0.554864
	0.555186
	0.558407
	0.558729
	0.555508
	0.553253
	0.557441
	0.557763
	0.554542
	0.555186
	0.557763
	0.558085
	0.554542
	0.554864
	0.556797
	0.557763
	0.555508
	0.556152
	0.557441
	0.557441
	0.554219
	0.554542
	0.557763
	0.557763
	0.554219
	0.554864
	0.558729
	0.554864
	0.553253
	0.553897
	0.557119
	0.555508
	0.554864
	0.552931
	0.558407
	0.558407
	0.554219
	0.554219
	0.557441
	0.557763
	0.554864
	0.555186
	0.557119
	0.558085
	0.554219
	0.553253
	0.554542
	0.557119
	0.554219
	0.553253
	0.553575
	0.556152
	0.553253
	0.552287
	0.553575
	0.557441
	0.556152
	0.553575
	0.552287
	0.555508
	0.556474
	0.553575
	0.553575
	0.556797
	0.557119
	0.550998
	0.551320
	0.554219
	0.555508
	0.553253
	0.552287
	0.552609
	0.556797
	0.553253
	0.550354
	0.554219
	0.555508
	0.552287
	0.550676
	0.555186
	0.553897
	0.554219
	0.550676
	0.554542
	0.553897
	0.553897
	0.549065
	0.553253
	0.553897
	0.553575
	0.548421
	0.550676
	0.553253
	0.551965
	0.549388
	0.550032
	0.553253
	0.551965
	0.550354
	0.548743
	0.554219
	0.553253
	0.551642
	0.549710
	0.553253
	0.552609
	0.552287
	0.549710
	0.550998
	0.553575
	0.552287
	0.549065
	0.550032
	0.554864
	0.552931
	0.550354
	0.550032
	0.553897
	0.551642
	0.549388
	0.550032
	0.552609
	0.553253
	0.548421
	0.549710
	0.552609
	0.552931
	0.548743
	0.548743
	0.550032
	0.551642
	0.550998
	0.547455
	0.550354
	0.552609
	0.551965
	0.546488
	0.550676
	0.551320
	0.551320
	0.547133
	0.551320
	0.551642
	0.551642
	0.548099
	0.548421
	0.551320
	0.550676
	0.548099
	0.546166
	0.551965
	0.549710
	0.547777
	0.546166
	0.550676
	0.550676
	0.550998
	0.546811
	0.549388
	0.550998
	0.550998
	0.545844
	0.548099
	0.551320
	0.548743
	0.547133
	0.546811
	0.550998
	0.549388
	0.547133
	0.545200
	0.549710
	0.550676
	0.548743
	0.545200
	0.550032
	0.550998
	0.547777
	0.546488
	0.547777
	0.550354
	0.549065
	0.548099
	0.545844
	0.550676
	0.549065
	0.546488
	0.545200
	0.549710
	0.550998
	0.547133
	0.545844
	0.545522
	0.549710
	0.547455
	0.544878
	0.547133
	0.550998
	0.548743
	0.544878
	0.547133
	0.547777
	0.548099
	0.544556
	0.546488
	0.548099
	0.549710
	0.544878
	0.543589
	0.546488
	0.546811
	0.544233
	0.542623
	0.548099
	0.547777
	0.546488
	0.543911
	0.548099
	0.547777
	0.548099
	0.542301
	0.547133
	0.547455
	0.545522
	0.541656
	0.545200
	0.545844
	0.545844
	0.544556
	0.544556
	0.547455
	0.545522
	0.542623
	0.541656
	0.547455
	0.545200
	0.542623
	0.543911
	0.545522
	0.545844
	0.542945
	0.543911
	0.546166
	0.546811
	0.543911
	0.542301
	0.543911
	0.546488
	0.542301
	0.543267
	0.544556
	0.546166
	0.543911
	0.541656
	0.543267
	0.545844
	0.544556
	0.541656
	0.544556
	0.546488
	0.545200
	0.541012
	0.543589
	0.544878
	0.543267
	0.540368
	0.543267
	0.544556
	0.545844
	0.540690
	0.541334
	0.544556
	0.544556
	0.540690
	0.540368
	0.545522
	0.542945
	0.541334
	0.540368
	0.544233
	0.543589
	0.542301
	0.541334
	0.544878
	0.545844
	0.540368
	0.540046
	0.542623
	0.544233
	0.540368
	0.540690
	0.542301
	0.542301
	0.541979
	0.540368
	0.542945
	0.544233
	0.542945
	0.538435
	0.541979
	0.542623
	0.543911
	0.539402
	0.542301
	0.542945
	0.542301
	0.540368
	0.536502
	0.541334
	0.541979
	0.541334
	0.538113
	0.543911
	0.541656
	0.541656
	0.537147
	0.539402
	0.541656
	0.541012
	0.537791
	0.539402
	0.543267
	0.541334
	0.539079
	0.538435
	0.543911
	0.540690
	0.540046
	0.537147
	0.541334
	0.541012
	0.538757
	0.536180
	0.539724
	0.543589
	0.539079
	0.539079
	0.541334
	0.541656
	0.537147
	0.536825
	0.538435
	0.541012
	0.538435
	0.536502
	0.539402
	0.540046
	0.537791
	0.535858
	0.538757
	0.539402
	0.538757
	0.535536
	0.538757
	0.539079
	0.539402
	0.535858
	0.539079
	0.540046
	0.541012
	0.534248
	0.538113
	0.538757
	0.537469
	0.534570
	0.539079
	0.538113
	0.539079
	0.535214
	0.537147
	0.538757
	0.537791
	0.532959
	0.536825
	0.539724
	0.538757
	0.535536
	0.535536
	0.539079
	0.536825
	0.535858
	0.534892
	0.537791
	0.536180
	0.536180
	0.532959
	0.538113
	0.536825
	0.535858
	0.534248
	0.537791
	0.536502
	0.535536
	0.533281
	0.536502
	0.537791
	0.535214
	0.530704
	0.534570
	0.539402
	0.535214
	0.534570
	0.533925
	0.537791
	0.535536
	0.533925
	0.532959
	0.537469
	0.536502
	0.534892
	0.532959
	0.535858
	0.535214
	0.534892
	0.531348
	0.535214
	0.536502
	0.533925
	0.531026
	0.531993
	0.537791
	0.535214
	0.531993
	0.531670
	0.535536
	0.533281
	0.533281
	0.531348
	0.535214
	0.535214
	0.533603
	0.528449
	0.533603
	0.533603
	0.531348
	0.530382
	0.534892
	0.534570
	0.532315
	0.531993
	0.534248
	0.535214
	0.532315
	0.530060
	0.533925
	0.533925
	0.531348
	0.530060
	0.532959
	0.533925
	0.531026
	0.530382
	0.532959
	0.533925
	0.530382
	0.530704
	0.530382
	0.534248
	0.532315
	0.530060
	0.530382
	0.534570
	0.531993
	0.529416
	0.530704
	0.532315
	0.531026
	0.529738
	0.528771
	0.531026
	0.532959
	0.529738
	0.528449
	0.529738
	0.533925
	0.531348
	0.528449
	0.528771
	0.532637
	0.530060
	0.529738
	0.527805
	0.533603
	0.531670
	0.529416
	0.528127
	0.531348
	0.530704
	0.530060
	0.527483
	0.528449
	0.532315
	0.529738
	0.527161
	0.527483
	0.532637
	0.528771
	0.527483
	0.525550
	0.531026
	0.529416
	0.528127
	0.525228
	0.529416
	0.531993
	0.529738
	0.525872
	0.528127
	0.530060
	0.527483
	0.525872
	0.526839
	0.529738
	0.528449
	0.527161
	0.524906
	0.530382
	0.529738
	0.524584
	0.524906
	0.529738
	0.530060
	0.528449
	0.526516
	0.526839
	0.528771
	0.526516
	0.525872
	0.525872
	0.530060
	0.527161
	0.525550
	0.526839
	0.528127
	0.526839
	0.523617
	0.527483
	0.529416
	0.526516
	0.523295
	0.527805
	0.527483
	0.525872
	0.523939
	0.529093
	0.526516
	0.524906
	0.522973
	0.526839
	0.526194
	0.524906
	0.522973
	0.524262
	0.526839
	0.524584
	0.522329
	0.525228
	0.528449
	0.523939
	0.522651
	0.524584
	0.527483
	0.522651
	0.522007
	0.523939
	0.524584
	0.523295
	0.520718
	0.526194
	0.523939
	0.521684
	0.519752
	0.525228
	0.523939
	0.521362
	0.520718
	0.524584
	0.522973
	0.521040
	0.519752
	0.525228
	0.523939
	0.522973
	0.519430
	0.523295
	0.522973
	0.520396
	0.518463
	0.522973
	0.523295
	0.522329
	0.519430
	0.521684
	0.523295
	0.522007
	0.519752
	0.520718
	0.524262
	0.521040
	0.519752
	0.521684
	0.523939
	0.521362
	0.519107
	0.519752
	0.522973
	0.519107
	0.517175
	0.519752
	0.521684
	0.517497
	0.517819
	0.520396
	0.521362
	0.517175
	0.518141
	0.521362
	0.520396
	0.518463
	0.515242
	0.520396
	0.522329
	0.520396
	0.515564
	0.520396
	0.519430
	0.518785
	0.516530
	0.519430
	0.518463
	0.520718
	0.516208
	0.517819
	0.520718
	0.521362
	0.514920
	0.518141
	0.519752
	0.518463
	0.513631
	0.518141
	0.518785
	0.520718
	0.515564
	0.517175
	0.519107
	0.519107
	0.513309
	0.515242
	0.518785
	0.518463
	0.515564
	0.515242
	0.518463
	0.518141
	0.517175
	0.514276
	0.518785
	0.516530
	0.517497
	0.513631
	0.519430
	0.519107
	0.515886
	0.513309
	0.518141
	0.514920
	0.514598
	0.512665
	0.516208
	0.515886
	0.514598
	0.513309
	0.517497
	0.517819
	0.513309
	0.514276
	0.517175
	0.515886
	0.512021
	0.516208
	0.515242
	0.516530
	0.512021
	0.515242
	0.514920
	0.514598
	0.510088
	0.514598
	0.515564
	0.514920
	0.510732
	0.515242
	0.515886
	0.512987
	0.511376
	0.513309
	0.513953
	0.510732
	0.511699
	0.514598
	0.515564
	0.511054
	0.511054
	0.513631
	0.516208
	0.511699
	0.511054
	0.512987
	0.514276
	0.509121
	0.510410
	0.512987
	0.512987
	0.511376
	0.510732
	0.513953
	0.513953
	0.510732
	0.508477
	0.515242
	0.513631
	0.511376
	0.509444
	0.513631
	0.512021
	0.511376
	0.508155
	0.512665
	0.512987
	0.511376
	0.506222
	0.510732
	0.512343
	0.509121
	0.508155
	0.510088
	0.512987
	0.510088
	0.508477
	0.509766
	0.512665
	0.510088
	0.508799
	0.508799
	0.511699
	0.509121
	0.508477
	0.506867
	0.512665
	0.508799
	0.507833
	0.508477
	0.511376
	0.511054
	0.508477
	0.508477
	0.511699
	0.511054
	0.508155
	0.508155
	0.511054
	0.509444
	0.504934
	0.507833
	0.508799
	0.508799
	0.505578
	0.508477
	0.509766
	0.510088
	0.504290
	0.506544
	0.507189
	0.509121
	0.503323
	0.507833
	0.507833
	0.506867
	0.503645
	0.508799
	0.507189
	0.505900
	0.503645
	0.506867
	0.508477
	0.504612
	0.503323
	0.506544
	0.509121
	0.503967
	0.503645
	0.506544
	0.508799
	0.503645
	0.504612
	0.506544
	0.506222
	0.503001
	0.504290
	0.506544
	0.506867
	0.502679
	0.504612
	0.506867
	0.504934
	0.502357
	0.503323
	0.505900
	0.502679
	0.501068
	0.504934
	0.505578
	0.501713
	0.502357
	0.503967
	0.505578
	0.500746
	0.501713
	0.504612
	0.505256
	0.501713
	0.504290
	0.505578
	0.503323
	0.499780
	0.503323
	0.505256
	0.502357
	0.501068
	0.502357
	0.503323
	0.502357
	0.500746
	0.501713
	0.503323
	0.501713
	0.499458
	0.501713
	0.505256
	0.501068
	0.500424
	0.502679
	0.504612
	0.500424
	0.500424
	0.501390
	0.502035
	0.498491
	0.501713
	0.501390
	0.501390
	0.496881
	0.501068
	0.502035
	0.502035
	0.496881
	0.501068
	0.502357
	0.499780
	0.499780
	0.502679
	0.502357
	0.498491
	0.501390
	0.500102
	0.501068
	0.496236
	0.499458
	0.500102
	0.500746
	0.494304
	0.500746
	0.500746
	0.499780
	0.494948
	0.500102
	0.498491
	0.497203
	0.494626
	0.498813
	0.499458
	0.498813
	0.496881
	0.499780
	0.501068
	0.496236
	0.495592
	0.499135
	0.499458
	0.494626
	0.493015
	0.496881
	0.496236
	0.494304
	0.496881
	0.497525
	0.496881
	0.494626
	0.496881
	0.498169
	0.497525
	0.492693
	0.497525
	0.498491
	0.496881
	0.493015
	0.499135
	0.496881
	0.494304
	0.493015
	0.496881
	0.495914
	0.496236
	0.492693
	0.497847
	0.497525
	0.495592
	0.493337
	0.497847
	0.495592
	0.492693
	0.494304
	0.496236
	0.493015
	0.491404
	0.492693
	0.495270
	0.492693
	0.491404
	0.493015
	0.494304
	0.493015
	0.489794
	0.492693
	0.494626
	0.490438
	0.489794
	0.495592
	0.494304
	0.490438
	0.490438
	0.494626
	0.492049
	0.492049
	0.488505
	0.493015
	0.493015
	0.492049
	0.488827
	0.492693
	0.491082
	0.489150
	0.489472
	0.494304
	0.492049
	0.489150
	0.488505
	0.490760
	0.493015
	0.490760
	0.488505
	0.491727
	0.492049
	0.488505
	0.487861
	0.491082
	0.491082
	0.487539
	0.488183
	0.490438
	0.491727
	0.487861
	0.488827
	0.490116
	0.491082
	0.486250
	0.490438
	0.490116
	0.490438
	0.484962
	0.488827
	0.488827
	0.488827
	0.485284
	0.488183
	0.488505
	0.488183
	0.484318
	0.487861
	0.489794
	0.488183
	0.484318
	0.488183
	0.489472
	0.487217
	0.482707
	0.485928
	0.486895
	0.485928
	0.485284
	0.484962
	0.489150
	0.485928
	0.484640
	0.484640
	0.488505
	0.484962
	0.483995
	0.487217
	0.486572
	0.482385
	0.483029
	0.485606
	0.485928
	0.484962
	0.483029
	0.483351
	0.486572
	0.484640
	0.482063
	0.484318
	0.487217
	0.485284
	0.482385
	0.482385
	0.485928
	0.483351
	0.483029
	0.481741
	0.484318
	0.483673
	0.481418
	0.481741
	0.483995
	0.483673
	0.480452
	0.481741
	0.484318
	0.484318
	0.480452
	0.482707
	0.482707
	0.484640
	0.479808
	0.480774
	0.483029
	0.484318
	0.478197
	0.483029
	0.482385
	0.481096
	0.477553
	0.481741
	0.481741
	0.483673
	0.478841
	0.479486
	0.482707
	0.482385
	0.479486
	0.479486
	0.484962
	0.481418
	0.481418
	0.477553
	0.481418
	0.481096
	0.480130
	0.475298
	0.481096
	0.481096
	0.479808
	0.475942
	0.480774
	0.481741
	0.481096
	0.476264
	0.479486
	0.480774
	0.480774
	0.477553
	0.479164
	0.481096
	0.480130
	0.477553
	0.478197
	0.481418
	0.478841
	0.475298
	0.474976
	0.478519
	0.478519
	0.477875
	0.475620
	0.481418
	0.479486
	0.476909
	0.474976
	0.480130
	0.479164
	0.476264
	0.475942
	0.478841
	0.478519
	0.475942
	0.474654
	0.477231
	0.479808
	0.477553
	0.473365
	0.475298
	0.478841
	0.475620
	0.474009
	0.474976
	0.477553
	0.476264
	0.474654
	0.473043
	0.477553
	0.476909
	0.473365
	0.471110
	0.477231
	0.474976
	0.473687
	0.472077
	0.475620
	0.474976
	0.474654
	0.470466
	0.474009
	0.476587
	0.473365
	0.469822
	0.472721
	0.475942
	0.474332
	0.472721
	0.472399
	0.475298
	0.473365
	0.472399
	0.468855
	0.474654
	0.473043
	0.471432
	0.469500
	0.474009
	0.471432
	0.472077
	0.467245
	0.469500
	0.472721
	0.472077
	0.467889
	0.469500
	0.473365
	0.470788
	0.469500
	0.469500
	0.473043
	0.471755
	0.470788
	0.466278
	0.471110
	0.470144
	0.470144
	0.465634
	0.469178
	0.469822
	0.469822
	0.465634
	0.469500
	0.469500
	0.468855
	0.467567
	0.465634
	0.471110
	0.471432
	0.468855
	0.464990
	0.470144
	0.468211
	0.468533
	0.464346
	0.467889
	0.469178
	0.467245
	0.463701
	0.467567
	0.468855
	0.467567
	0.463379
	0.466278
	0.467245
	0.466601
	0.464346
	0.465312
	0.470144
	0.467567
	0.465312
	0.464668
	0.468855
	0.465956
	0.463057
	0.464023
	0.466923
	0.466278
	0.461769
	0.464346
	0.466278
	0.467245
	0.462735
	0.464668
	0.465634
	0.466601
	0.461124
	0.464346
	0.467245
	0.465634
	0.462735
	0.462091
	0.465956
	0.463701
	0.463057
	0.461446
	0.465634
	0.462735
	0.461769
	0.460158
	0.465312
	0.464668
	0.462413
	0.462091
	0.464668
	0.463057
	0.460158
	0.462091
	0.463379
	0.464346
	0.459514
	0.461769
	0.462091
	0.463057
	0.457259
	0.460480
	0.462091
	0.461446
	0.458225
	0.459514
	0.461446
	0.461124
	0.458869
	0.459192
	0.463057
	0.461769
	0.459192
	0.457259
	0.461124
	0.461124
	0.461124
	0.455970
	0.461124
	0.459514
	0.460480
	0.455970
	0.457903
	0.459192
	0.459514
	0.455648
	0.459514
	0.459836
	0.456937
	0.456615
	0.456292
	0.459192
	0.458869
	0.457259
	0.455326
	0.460480
	0.458547
	0.454682
	0.455326
	0.459514
	0.457581
	0.456615
	0.455648
	0.456937
	0.456937
	0.453715
	0.454360
	0.456292
	0.457581
	0.454038
	0.453393
	0.456292
	0.456937
	0.455648
	0.453071
	0.456615
	0.456937
	0.455970
	0.452427
	0.454360
	0.455326
	0.456937
	0.451138
	0.454038
	0.455326
	0.454360
	0.451138
	0.452427
	0.453715
	0.454360
	0.452105
	0.449850
	0.455004
	0.454360
	0.452105
	0.450816
	0.455004
	0.453393
	0.452427
	0.449528
	0.454360
	0.453393
	0.453071
	0.448561
	0.453071
	0.453071
	0.451783
	0.448883
	0.450172
	0.453071
	0.452105
	0.450172
	0.447917
	0.451460
	0.450816
	0.452105
	0.446306
	0.451138
	0.450494
	0.450816
	0.447273
	0.449850
	0.451460
	0.451138
	0.447917
	0.448239
	0.451783
	0.450172
	0.447917
	0.445984
	0.450494
	0.448561
	0.446629
	0.446629
	0.450172
	0.448883
	0.448239
	0.445340
	0.447917
	0.448239
	0.445984
	0.445340
	0.448239
	0.449528
	0.445018
	0.445984
	0.447917
	0.447273
	0.444374
	0.443729
	0.446629
	0.445984
	0.446629
	0.442119
	0.447273
	0.447273
	0.445984
	0.441152
	0.446951
	0.445018
	0.443729
	0.441152
	0.444374
	0.443729
	0.442441
	0.439864
	0.444052
	0.445662
	0.442441
	0.440186
	0.443085
	0.445340
	0.441475
	0.441152
	0.443407
	0.445984
	0.442763
	0.441475
	0.442763
	0.443729
	0.440508
	0.438253
	0.442441
	0.443407
	0.441475
	0.437609
	0.443729
	0.443407
	0.442119
	0.439220
	0.443085
	0.441152
	0.440508
	0.437609
	0.441475
	0.443085
	0.441797
	0.439220
	0.439864
	0.442119
	0.440186
	0.438253
	0.438253
	0.441475
	0.439220
	0.438253
	0.435032
	0.441475
	0.440508
	0.438897
	0.437287
	0.440830
	0.438897
	0.437931
	0.436320
	0.439542
	0.440830
	0.436643
	0.435998
	0.439220
	0.439542
	0.433743
	0.434710
	0.436320
	0.437931
	0.433743
	0.435032
	0.437931
	0.438575
	0.435676
	0.433421
	0.437609
	0.437287
	0.437287
	0.433421
	0.438253
	0.436965
	0.433421
	0.432133
	0.437287
	0.435676
	0.434710
	0.432777
	0.434388
	0.435676
	0.433743
	0.431489
	0.435032
	0.436320
	0.431811
	0.431166
	0.432455
	0.435676
	0.433743
	0.431166
	0.431166
	0.435354
	0.432455
	0.430844
	0.430844
	0.434388
	0.433099
	0.429878
	0.431811
	0.432777
	0.432777
	0.429556
	0.429878
	0.433099
	0.432455
	0.427945
	0.427945
	0.430844
	0.432777
	0.429234
	0.428267
	0.431166
	0.431166
	0.427945
	0.426657
	0.428589
	0.430844
	0.430522
	0.426012
	0.428589
	0.430844
	0.431166
	0.426657
	0.428267
	0.429556
	0.430522
	0.426334
	0.426657
	0.428911
	0.431166
	0.426334
	0.425046
	0.428589
	0.429556
	0.426012
	0.424402
	0.427301
	0.428267
	0.427623
	0.424402
	0.426012
	0.427301
	0.427301
	0.422469
	0.426012
	0.426012
	0.425368
	0.422147
	0.426012
	0.425368
	0.426657
	0.421825
	0.422469
	0.424724
	0.424724
	0.421503
	0.422791
	0.426012
	0.423435
	0.421503
	0.422469
	0.426334
	0.423113
	0.422469
	0.422469
	0.424080
	0.422469
	0.419892
	0.422469
	0.425046
	0.426012
	0.419248
	0.421825
	0.422469
	0.422147
	0.418281
	0.418926
	0.421825
	0.421180
	0.419892
	0.417637
	0.421825
	0.422147
	0.419570
	0.417315
	0.422147
	0.419248
	0.419570
	0.418281
	0.419892
	0.421503
	0.422147
	0.417637
	0.417637
	0.421180
	0.418926
	0.417315
	0.415382
	0.420858
	0.419570
	0.417637
	0.417315
	0.419248
	0.420536
	0.417315
	0.414738
	0.417637
	0.419892
	0.417959
	0.415382
	0.415704
	0.419248
	0.417959
	0.416026
	0.415382
	0.418281
	0.417637
	0.413771
	0.414094
	0.416671
	0.415704
	0.413127
	0.414094
	0.415704
	0.417315
	0.414094
	0.411839
	0.414416
	0.417315
	0.413449
	0.412805
	0.416348
	0.416026
	0.413771
	0.412805
	0.413771
	0.414094
	0.412483
	0.409262
	0.413771
	0.415060
	0.413771
	0.409262
	0.412805
	0.414738
	0.415382
	0.410550
	0.410872
	0.413449
	0.413771
	0.411194
	0.408940
	0.412483
	0.412805
	0.411517
	0.409906
	0.411517
	0.411517
	0.411194
	0.407007
	0.409262
	0.411517
	0.412805
	0.407973
	0.408617
	0.410550
	0.410228
	0.407973
	0.407007
	0.409906
	0.409906
	0.410550
	0.405718
	0.410550
	0.409262
	0.407973
	0.405396
	0.410228
	0.410550
	0.407973
	0.405396
	0.407973
	0.409584
	0.407973
	0.405074
	0.405074
	0.410228
	0.407329
	0.405396
	0.405396
	0.408617
	0.407651
	0.404430
	0.406040
	0.407651
	0.407007
	0.403463
	0.403785
	0.405718
	0.407329
	0.401531
	0.403785
	0.406040
	0.407651
	0.403141
	0.404752
	0.404752
	0.406363
	0.402175
	0.404108
	0.407973
	0.406363
	0.401531
	0.402175
	0.406040
	0.404108
	0.401531
	0.401531
	0.405074
	0.402497
	0.401531
	0.399598
	0.403463
	0.402819
	0.399920
	0.399920
	0.403463
	0.402497
	0.399920
	0.401853
	0.403141
	0.403463
	0.398631
	0.399276
	0.400242
	0.401853
	0.399598
	0.397987
	0.400564
	0.401208
	0.397343
	0.399276
	0.401531
	0.399920
	0.397343
	0.396699
	0.399598
	0.399276
	0.397665
	0.396699
	0.401531
	0.399276
	0.396377
	0.397021
	0.399276
	0.396054
	0.395088
	0.398309
	0.399276
	0.395732
	0.395088
	0.397665
	0.399920
	0.396054
	0.394122
	0.398631
	0.397021
	0.393800
	0.394766
	0.398954
	0.396054
	0.393477
	0.394766
	0.396377
	0.393155
	0.392189
	0.395088
	0.395732
	0.392833
	0.391867
	0.395410
	0.396699
	0.393477
	0.392189
	0.396377
	0.393800
	0.391222
	0.392511
	0.396699
	0.392833
	0.391545
	0.393155
	0.394766
	0.393800
	0.391545
	0.391545
	0.393155
	0.391222
	0.387357
	0.391545
	0.391867
	0.390256
	0.388645
	0.393477
	0.390900
	0.388968
	0.389290
	0.390256
	0.391545
	0.388001
	0.391545
	0.391545
	0.390900
	0.386068
	0.391545
	0.390900
	0.387357
	0.386068
	0.390578
	0.389290
	0.386391
	0.388323
	0.389612
	0.388645
	0.385102
	0.389290
	0.388323
	0.388323
	0.383491
	0.387679
	0.389612
	0.387679
	0.385424
	0.389612
	0.389290
	0.382847
	0.384780
	0.385746
	0.386713
	0.382203
	0.384136
	0.387035
	0.386713
	0.384458
	0.383169
	0.387679
	0.385746
	0.383814
	0.383169
	0.387035
	0.384780
	0.381881
	0.382847
	0.384458
	0.385102
	0.382203
	0.383169
	0.383169
	0.382847
	0.377049
	0.382203
	0.383491
	0.382847
	0.378659
	0.382203
	0.384780
	0.381237
	0.380592
	0.382203
	0.383814
	0.379304
	0.378982
	0.381881
	0.384136
	0.378982
	0.377049
	0.381237
	0.381237
	0.378337
	0.378337
	0.380914
	0.378982
	0.378659
	0.376082
	0.380270
	0.378659
	0.377371
	0.375438
	0.381237
	0.379304
	0.377371
	0.375438
	0.379304
	0.377693
	0.375116
	0.375438
	0.378659
	0.378659
	0.375438
	0.375116
	0.378337
	0.379948
	0.374150
	0.375438
	0.377371
	0.377693
	0.372861
	0.374794
	0.377049
	0.378337
	0.375438
	0.374472
	0.376727
	0.377049
	0.372217
	0.372861
	0.376405
	0.375116
	0.373183
	0.371251
	0.376405
	0.374150
	0.372539
	0.368996
	0.375438
	0.373183
	0.373828
	0.369640
	0.375438
	0.374472
	0.371251
	0.369962
	0.373505
	0.371573
	0.369640
	0.368674
	0.372539
	0.371895
	0.369962
	0.367063
	0.371573
	0.371895
	0.368351
	0.368674
	0.371251
	0.371895
	0.368351
	0.368351
	0.369962
	0.371573
	0.367385
	0.367385
	0.368996
	0.370284
	0.365774
	0.365774
	0.368996
	0.367707
	0.365452
	0.365774
	0.369318
	0.368996
	0.367063
	0.366419
	0.370284
	0.368674
	0.366419
	0.366419
	0.369962
	0.368029
	0.364486
	0.364808
	0.370284
	0.366741
	0.364164
	0.364808
	0.367385
	0.364486
	0.363197
	0.363842
	0.367707
	0.366096
	0.362553
	0.363842
	0.366419
	0.362875
	0.361909
	0.364808
	0.366096
	0.363519
	0.361587
	0.364164
	0.364486
	0.362231
	0.360620
	0.364808
	0.364164
	0.360298
	0.359332
	0.364164
	0.362231
	0.360942
	0.359654
	0.364164
	0.362553
	0.359976
	0.358365
	0.363519
	0.361909
	0.358365
	0.359976
	0.361587
	0.360298
	0.356755
	0.359010
	0.361587
	0.359976
	0.356111
	0.359654
	0.359654
	0.359332
	0.356111
	0.359654
	0.360298
	0.359654
	0.355144
	0.360620
	0.359010
	0.357721
	0.355788
	0.360620
	0.357399
	0.356433
	0.354178
	0.359010
	0.357077
	0.353856
	0.354500
	0.356111
	0.355466
	0.351279
	0.354822
	0.356433
	0.356111
	0.351601
	0.355788
	0.355466
	0.355144
	0.352889
	0.356111
	0.357077
	0.355788
	0.351601
	0.354500
	0.356433
	0.352889
	0.351279
	0.354822
	0.354822
	0.352245
	0.349990
	0.352567
	0.354822
	0.351279
	0.351601
	0.354500
	0.355144
	0.350956
	0.350634
	0.353533
	0.353856
	0.349990
	0.350634
	0.353533
	0.352567
	0.349990
	0.349668
	0.352567
	0.351601
	0.350634
	0.347735
	0.352567
	0.350312
	0.347735
	0.347735
	0.350956
	0.349346
	0.348057
	0.348702
	0.350312
	0.348702
	0.346769
	0.348702
	0.349024
	0.349346
	0.344836
	0.349668
	0.348379
	0.347413
	0.342903
	0.350312
	0.348057
	0.345802
	0.344514
	0.347413
	0.347091
	0.346769
	0.342259
	0.346125
	0.348379
	0.347091
	0.342903
	0.346125
	0.345480
	0.344514
	0.343225
	0.344192
	0.346125
	0.343225
	0.340648
	0.344836
	0.346769
	0.342903
	0.340648
	0.342903
	0.345158
	0.342259
	0.342259
	0.344192
	0.345802
	0.342259
	0.340970
	0.343870
	0.343225
	0.341293
	0.338393
	0.343548
	0.342259
	0.338716
	0.337749
	0.343870
	0.342903
	0.339682
	0.339682
	0.341937
	0.340004
	0.337749
	0.337427
	0.342259
	0.339682
	0.337105
	0.339038
	0.342259
	0.337105
	0.336139
	0.339682
	0.340648
	0.336783
	0.337427
	0.339038
	0.340004
	0.335494
	0.336139
	0.339038
	0.339038
	0.335816
	0.333884
	0.338716
	0.337427
	0.336783
	0.334528
	0.338393
	0.336461
	0.336461
	0.333884
	0.337749
	0.336139
	0.333884
	0.331307
	0.336783
	0.335494
	0.332917
	0.331307
	0.335172
	0.334528
	0.334850
	0.330340
	0.332595
	0.336139
	0.333239
	0.330340
	0.333239
	0.335172
	0.331951
	0.331951
	0.333562
	0.336783
	0.331629
	0.329374
	0.329374
	0.332917
	0.331629
	0.326797
	0.332273
	0.332595
	0.331629
	0.328085
	0.331307
	0.330985
	0.330985
	0.326797
	0.330018
	0.330985
	0.330018
	0.325830
	0.330662
	0.331951
	0.329052
	0.327441
	0.328730
	0.330985
	0.328085
	0.325830
	0.326797
	0.330018
	0.328730
	0.324542
	0.327763
	0.329696
	0.329052
	0.323898
	0.325508
	0.328407
	0.328730
	0.323898
	0.324542
	0.327441
	0.328730
	0.324542
	0.321643
	0.325186
	0.327119
	0.324542
	0.322931
	0.327441
	0.325830
	0.324220
	0.321321
	0.326475
	0.325186
	0.323576
	0.320032
	0.324864
	0.323576
	0.322287
	0.318422
	0.324220
	0.323898
	0.321965
	0.319066
	0.321643
	0.323898
	0.324220
	0.320354
	0.320354
	0.324220
	0.321643
	0.320032
	0.319710
	0.323576
	0.320999
	0.318744
	0.318099
	0.322931
	0.320354
	0.319066
	0.316489
	0.322287
	0.320032
	0.318422
	0.316811
	0.320354
	0.320032
	0.318099
	0.316811
	0.317777
	0.320676
	0.317133
	0.315522
	0.318422
	0.320999
	0.316489
	0.313912
	0.314556
	0.317455
	0.315522
	0.314878
	0.316167
	0.316811
	0.317133
	0.312945
	0.315844
	0.316811
	0.317133
	0.310368
	0.314878
	0.315522
	0.315844
	0.311979
	0.313912
	0.315200
	0.315844
	0.311013
	0.310690
	0.314234
	0.311657
	0.310690
	0.309080
	0.313912
	0.311657
	0.312623
	0.308758
	0.313267
	0.313590
	0.311979
	0.307469
	0.312623
	0.313912
	0.311013
	0.310690
	0.311657
	0.313267
	0.310368
	0.308758
	0.310368
	0.312301
	0.309724
	0.306825
	0.309402
	0.310368
	0.309402
	0.306181
	0.310368
	0.309724
	0.310368
	0.305214
	0.307469
	0.308758
	0.311013
	0.306181
	0.307147
	0.309724
	0.309080
	0.305859
	0.304570
	0.308436
	0.307469
	0.306503
	0.302637
	0.305859
	0.307469
	0.307147
	0.302637
	0.308436
	0.307469
	0.305536
	0.302315
	0.304892
	0.306503
	0.306825
	0.302637
	0.302315
	0.306825
	0.305536
	0.303281
	0.301349
	0.304248
	0.302637
	0.301671
	0.298450
	0.301993
	0.303281
	0.302959
	0.300060
	0.301349
	0.303604
	0.300704
	0.299094
	0.299416
	0.302959
	0.300382
	0.299416
	0.299094
	0.301349
	0.301027
	0.296839
	0.299094
	0.301027
	0.299416
	0.294584
	0.297805
	0.299416
	0.298450
	0.294584
	0.298127
	0.298127
	0.300382
	0.295873
	0.295873
	0.299094
	0.297483
	0.294584
	0.294584
	0.299416
	0.297805
	0.297805
	0.292651
	0.297483
	0.296839
	0.296517
	0.291685
	0.293940
	0.296517
	0.295873
	0.292973
	0.291363
	0.295550
	0.296517
	0.296517
	0.290396
	0.293940
	0.294262
	0.294906
	0.290718
	0.292007
	0.295228
	0.294906
	0.291363
	0.290074
	0.293296
	0.292973
	0.291041
	0.288786
	0.294584
	0.291685
	0.288464
	0.288786
	0.293618
	0.292007
	0.291041
	0.287497
	0.292329
	0.291363
	0.287819
	0.286531
	0.290718
	0.291041
	0.285887
	0.287819
	0.290396
	0.290718
	0.286209
	0.289108
	0.289108
	0.290074
	0.285887
	0.287819
	0.289108
	0.291041
	0.285887
	0.286209
	0.289430
	0.286853
	0.283954
	0.285242
	0.288464
	0.286531
	0.285564
	0.283954
	0.287819
	0.287497
	0.284598
	0.282665
	0.285887
	0.286209
	0.281377
	0.282343
	0.285564
	0.286209
	0.283632
	0.283954
	0.284920
	0.285564
	0.280733
	0.281699
	0.284276
	0.284276
	0.279122
	0.282343
	0.283310
	0.282987
	0.279444
	0.282021
	0.284276
	0.281699
	0.280088
	0.278800
	0.282343
	0.282021
	0.280410
	0.280088
	0.283954
	0.282021
	0.280733
	0.277833
	0.282343
	0.280733
	0.279444
	0.275901
	0.279122
	0.280410
	0.280088
	0.275578
	0.278800
	0.280088
	0.277511
	0.274612
	0.276545
	0.280088
	0.279122
	0.275901
	0.273646
	0.280088
	0.278478
	0.276223
	0.273968
	0.279122
	0.276545
	0.274934
	0.271391
	0.274290
	0.274934
	0.275578
	0.272679
	0.275901
	0.276223
	0.273968
	0.272357
	0.274934
	0.276867
	0.273968
	0.273646
	0.271069
	0.275256
	0.274290
	0.272035
	0.270102
	0.273646
	0.273324
	0.273646
	0.270424
	0.269458
	0.273968
	0.272679
	0.272679
	0.268814
	0.271391
	0.272035
	0.271069
	0.266881
	0.271069
	0.270102
	0.272679
	0.269458
	0.267847
	0.271713
	0.272035
	0.267847
	0.264948
	0.270424
	0.270102
	0.268814
	0.266559
	0.269780
	0.268170
	0.269136
	0.263982
	0.268814
	0.269458
	0.267525
	0.263982
	0.265592
	0.267203
	0.265592
	0.264304
	0.263015
	0.268492
	0.265270
	0.263015
	0.261727
	0.266237
	0.265915
	0.261083
	0.263660
	0.264304
	0.265592
	0.262693
	0.262049
	0.263338
	0.265915
	0.264304
	0.259472
	0.262049
	0.263982
	0.262371
	0.259150
	0.261083
	0.262049
	0.262693
	0.258828
	0.260116
	0.261083
	0.262693
	0.257539
	0.258506
	0.262693
	0.261727
	0.259794
	0.260116
	0.263015
	0.260761
	0.258506
	0.255929
	0.259472
	0.259794
	0.256895
	0.254318
	0.260438
	0.257861
	0.255607
	0.255929
	0.260116
	0.259150
	0.255929
	0.256251
	0.257861
	0.257861
	0.254962
	0.253996
	0.257539
	0.258184
	0.251741
	0.254962
	0.255284
	0.254640
	0.252707
	0.254318
	0.253674
	0.253996
	0.251097
	0.252707
	0.255929
	0.254318
	0.251097
	0.250130
	0.255284
	0.253030
	0.252385
	0.250452
	0.255284
	0.253674
	0.251741
	0.249486
	0.252385
	0.252707
	0.250452
	0.249486
	0.252063
	0.251741
	0.247553
	0.249164
	0.251097
	0.253352
	0.248198
	0.247875
	0.249486
	0.251097
	0.248198
	0.247231
	0.251419
	0.250775
	0.246909
	0.245943
	0.251419
	0.246909
	0.246909
	0.247231
	0.248842
	0.247875
	0.244654
	0.246909
	0.248198
	0.248520
	0.244010
	0.247231
	0.248520
	0.246587
	0.242721
	0.247875
	0.247875
	0.244976
	0.244010
	0.246265
	0.247231
	0.243366
	0.243044
	0.244010
	0.246587
	0.244010
	0.240144
	0.244976
	0.245298
	0.246265
	0.242721
	0.244654
	0.243688
	0.244976
	0.239822
	0.243044
	0.244976
	0.244976
	0.239178
	0.239822
	0.244976
	0.243688
	0.242077
	0.240467
	0.243688
	0.240789
	0.240467
	0.236923
	0.241111
	0.242399
	0.240144
	0.238534
	0.241433
	0.242721
	0.238534
	0.238212
	0.240789
	0.242077
	0.239178
	0.236923
	0.239500
	0.241433
	0.240144
	0.234990
	0.239822
	0.239178
	0.236601
	0.235635
	0.240144
	0.237889
	0.236279
	0.235957
	0.237245
	0.237889
	0.233380
	0.234990
	0.236923
	0.236923
	0.232735
	0.234668
	0.234990
	0.235957
	0.233058
	0.231447
	0.235635
	0.234024
	0.234024
	0.231125
	0.234668
	0.234346
	0.234668
	0.230158
	0.232735
	0.233702
	0.232413
	0.229192
	0.231447
	0.233058
	0.231769
	0.229836
	0.228548
	0.233702
	0.232413
	0.229836
	0.227581
	0.231125
	0.229836
	0.227581
	0.226615
	0.227259
	0.231769
	0.228870
	0.226937
	0.227581
	0.232091
	0.229836
	0.226293
	0.226615
	0.229836
	0.228226
	0.224682
	0.225649
	0.228870
	0.228226
	0.224038
	0.226615
	0.226615
	0.227904
	0.222749
	0.226293
	0.227259
	0.225971
	0.220817
	0.225326
	0.225971
	0.226937
	0.223716
	0.223394
	0.226615
	0.225649
	0.222105
	0.221783
	0.226293
	0.224682
	0.222749
	0.220495
	0.225326
	0.224038
	0.224038
	0.218562
	0.224038
	0.223072
	0.221783
	0.217273
	0.222749
	0.223072
	0.223072
	0.218884
	0.220495
	0.221461
	0.220817
	0.218240
	0.219528
	0.222105
	0.219206
	0.216307
	0.219206
	0.222749
	0.219850
	0.218884
	0.217595
	0.219850
	0.219206
	0.217273
	0.214696
	0.219206
	0.218240
	0.217595
	0.215341
	0.218562
	0.217918
	0.215985
	0.214052
	0.215341
	0.217595
	0.215663
	0.214374
	0.214052
	0.219206
	0.217273
	0.214052
	0.212119
	0.216307
	0.215341
	0.215985
	0.211475
	0.215985
	0.215341
	0.215018
	0.209864
	0.214052
	0.214696
	0.214052
	0.210831
	0.210831
	0.212764
	0.213086
	0.210186
	0.209220
	0.214374
	0.213408
	0.209542
	0.208254
	0.213086
	0.211475
	0.209864
	0.208898
	0.212119
	0.210509
	0.208576
	0.207932
	0.210831
	0.211475
	0.206643
	0.205999
	0.207609
	0.209542
	0.205677
	0.206965
	0.208254
	0.209864
	0.208898
	0.205999
	0.205677
	0.209542
	0.207609
	0.204388
	0.204710
	0.207932
	0.205999
	0.203744
	0.203422
	0.204388
	0.207287
	0.203422
	0.200845
	0.203744
	0.206965
	0.203422
	0.202455
	0.203100
	0.204388
	0.203422
	0.202778
	0.200523
	0.204388
	0.204388
	0.199556
	0.200523
	0.202455
	0.202778
	0.198912
	0.200201
	0.201489
	0.202778
	0.198590
	0.197301
	0.199556
	0.202455
	0.201811
	0.197623
	0.199556
	0.201489
	0.199556
	0.197301
	0.200201
	0.200201
	0.199878
	0.196979
	0.199878
	0.198912
	0.199234
	0.195046
	0.199556
	0.200201
	0.196979
	0.195046
	0.195369
	0.198268
	0.196335
	0.194724
	0.194080
	0.197946
	0.197301
	0.195046
	0.193758
	0.197623
	0.196013
	0.193758
	0.193114
	0.194724
	0.196657
	0.193758
	0.191825
	0.193436
	0.196335
	0.192147
	0.190537
	0.193436
	0.194080
	0.193436
	0.190215
	0.192792
	0.193114
	0.194724
	0.189892
	0.193114
	0.194402
	0.193436
	0.189570
	0.188282
	0.190859
	0.190859
	0.192147
	0.187638
	0.189892
	0.191181
	0.192469
	0.188282
	0.187315
	0.189892
	0.191503
	0.190215
	0.186349
	0.187315
	0.190537
	0.190859
	0.186027
	0.187315
	0.187638
	0.187638
	0.186993
	0.184416
	0.185383
	0.186993
	0.187315
	0.181839
	0.186349
	0.187315
	0.186349
	0.181839
	0.186671
	0.185705
	0.186027
	0.182483
	0.184416
	0.186349
	0.186671
	0.182806
	0.182161
	0.185060
	0.183128
	0.182806
	0.180229
	0.184094
	0.183450
	0.181517
	0.179584
	0.183450
	0.184416
	0.181839
	0.178618
	0.181839
	0.184738
	0.180551
	0.180229
	0.182161
	0.182161
	0.180873
	0.178618
	0.178618
	0.181195
	0.179906
	0.175075
	0.178940
	0.180229
	0.179906
	0.175719
	0.178618
	0.180229
	0.180229
	0.176041
	0.175719
	0.179262
	0.179262
	0.176685
	0.175075
	0.178940
	0.176685
	0.176041
	0.174430
	0.178296
	0.177652
	0.174752
	0.172820
	0.176685
	0.177007
	0.172498
	0.173786
	0.176041
	0.177329
	0.172175
	0.172175
	0.175719
	0.174752
	0.172820
	0.170565
	0.175719
	0.174752
	0.172820
	0.168954
	0.174108
	0.173786
	0.168954
	0.169920
	0.172498
	0.173142
	0.169920
	0.169920
	0.171853
	0.172820
	0.170565
	0.166699
	0.172175
	0.172175
	0.169598
	0.166699
	0.169920
	0.170887
	0.168954
	0.166699
	0.167666
	0.172820
	0.169920
	0.166377
	0.164122
	0.168954
	0.167666
	0.166377
	0.165411
	0.167343
	0.168632
	0.167021
	0.165089
	0.165411
	0.169920
	0.167021
	0.163156
	0.163478
	0.166377
	0.165089
	0.162512
	0.164766
	0.164766
	0.167021
	0.162834
	0.161867
	0.165411
	0.166055
	0.161545
	0.161545
	0.163800
	0.162189
	0.162512
	0.160579
	0.164766
	0.163478
	0.162189
	0.158646
	0.163156
	0.162512
	0.158002
	0.158646
	0.161223
	0.160579
	0.156391
	0.158968
	0.159290
	0.160579
	0.158324
	0.156713
	0.160257
	0.159935
	0.158002
	0.155425
	0.161867
	0.159935
	0.157680
	0.156391
	0.159290
	0.158002
	0.157358
	0.155425
	0.157035
	0.159612
	0.157035
	0.154780
	0.154458
	0.157035
	0.155747
	0.153814
	0.153492
	0.155103
	0.158324
	0.154136
	0.153814
	0.155747
	0.157035
	0.152848
	0.151881
	0.154136
	0.153170
	0.153492
	0.149949
	0.153492
	0.152526
	0.153492
	0.148338
	0.151559
	0.153814
	0.151881
	0.149304
	0.149626
	0.154136
	0.152848
	0.151881
	0.147694
	0.151237
	0.152848
	0.149626
	0.146405
	0.150271
	0.151559
	0.148338
	0.146727
	0.148016
	0.150915
	0.149626
	0.147049
	0.148338
	0.149949
	0.148660
	0.144472
	0.149304
	0.148982
	0.149949
	0.144472
	0.147694
	0.147372
	0.147049
	0.143506
	0.144472
	0.146405
	0.144795
	0.142217
	0.142862
	0.148338
	0.144795
	0.142862
	0.145117
	0.145117
	0.144472
	0.141573
	0.143506
	0.144150
	0.145439
	0.138996
	0.142540
	0.143506
	0.142540
	0.139318
	0.141573
	0.143184
	0.140929
	0.138996
	0.139318
	0.143184
	0.140607
	0.139318
	0.139640
	0.141573
	0.140607
	0.137063
	0.138352
	0.141573
	0.140607
	0.137386
	0.138996
	0.139640
	0.140285
	0.135775
	0.136419
	0.139318
	0.138996
	0.133198
	0.134486
	0.138030
	0.137386
	0.134809
	0.134809
	0.137063
	0.137386
	0.136419
	0.132554
	0.138352
	0.136419
	0.134486
	0.131909
	0.137708
	0.135453
	0.134486
	0.131265
	0.134809
	0.135453
	0.132876
	0.129655
	0.131909
	0.136419
	0.133842
	0.130621
	0.131265
	0.133842
	0.132232
	0.130943
	0.131587
	0.132876
	0.133842
	0.128688
	0.129332
	0.131265
	0.131909
	0.127722
	0.128366
	0.131587
	0.130943
	0.129977
	0.127077
	0.130621
	0.130299
	0.128366
	0.124823
	0.131909
	0.129977
	0.127722
	0.126433
	0.129977
	0.128688
	0.126111
	0.125145
	0.126433
	0.129010
	0.124500
	0.121923
	0.125467
	0.129010
	0.125467
	0.123856
	0.125467
	0.125789
	0.124178
	0.120635
	0.125145
	0.124178
	0.124178
	0.120957
	0.125789
	0.125467
	0.122246
	0.120313
	0.122890
	0.124178
	0.119991
	0.119991
	0.122568
	0.122246
	0.121601
	0.119991
	0.121279
	0.122890
	0.124178
	0.117736
	0.119669
	0.122246
	0.121601
	0.118380
	0.119669
	0.120635
	0.121279
	0.118380
	0.117092
	0.122246
	0.120635
	0.118058
	0.117736
	0.119991
	0.117736
	0.116125
	0.116447
	0.116769
	0.118380
	0.113870
	0.113870
	0.116769
	0.119346
	0.113870
	0.115803
	0.117414
	0.117736
	0.113870
	0.112582
	0.116447
	0.114837
	0.113870
	0.111293
	0.114837
	0.114515
	0.114515
	0.111293
	0.116125
	0.115803
	0.112904
	0.110649
	0.112904
	0.114837
	0.113870
	0.111615
	0.110327
	0.113226
	0.113226
	0.108716
	0.109683
	0.112904
	0.110971
	0.107750
	0.109360
	0.110649
	0.113226
	0.108394
	0.109038
	0.112260
	0.112260
	0.106783
	0.108072
	0.111937
	0.109360
	0.107750
	0.110005
	0.111293
	0.109360
	0.107106
	0.106461
	0.109360
	0.109360
	0.104851
	0.103884
	0.107106
	0.108716
	0.103884
	0.105817
	0.108072
	0.107428
	0.105495
	0.102918
	0.106783
	0.106461
	0.106783
	0.101629
	0.105817
	0.106783
	0.103884
	0.101629
	0.104529
	0.105495
	0.101629
	0.100663
	0.102918
	0.104529
	0.103240
	0.100985
	0.103884
	0.103562
	0.100019
	0.099052
	0.105173
	0.101629
	0.099052
	0.099374
	0.102274
	0.100663
	0.098086
	0.099374
	0.100985
	0.101952
	0.095831
	0.099374
	0.100341
	0.100341
	0.096475
	0.100663
	0.101307
	0.097120
	0.095509
	0.099052
	0.101307
	0.096475
	0.096153
	0.097764
	0.098408
	0.095831
	0.094220
	0.097764
	0.097764
	0.095509
	0.094220
	0.098086
	0.095509
	0.093254
	0.094543
	0.097120
	0.095187
	0.092288
	0.095509
	0.095187
	0.094543
	0.091321
	0.096153
	0.094220
	0.093898
	0.088744
	0.093254
	0.092610
	0.091966
	0.088422
	0.092288
	0.093254
	0.090999
	0.090033
	0.090033
	0.092288
	0.089711
	0.087456
	0.091643
	0.092610
	0.088422
	0.089066
	0.092610
	0.090677
	0.089389
	0.088100
	0.090355
	0.089389
	0.087456
	0.085845
	0.090677
	0.087134
	0.084879
	0.086489
	0.089389
	0.087778
	0.084879
	0.085201
	0.087456
	0.087778
	0.084234
	0.084557
	0.087134
	0.089711
	0.084234
	0.083912
	0.085845
	0.086167
	0.081980
	0.082946
	0.085523
	0.083912
	0.082302
	0.082624
	0.086489
	0.084557
	0.082302
	0.080369
	0.084557
	0.082946
	0.079725
	0.082946
	0.085845
	0.082946
	0.079725
	0.083912
	0.082624
	0.080691
	0.077470
	0.081980
	0.079725
	0.078436
	0.075215
	0.081980
	0.080047
	0.077470
	0.077792
	0.079403
	0.078758
	0.073926
	0.080369
	0.080691
	0.078114
	0.075859
	0.081335
	0.077792
	0.076181
	0.077470
	0.078436
	0.075215
	0.074249
	0.076503
	0.076826
	0.075537
	0.071349
	0.076503
	0.075859
	0.073282
	0.071349
	0.076826
	0.074249
	0.072638
	0.075537
	0.075537
	0.071994
	0.071994
	0.075537
	0.074571
	0.072960
	0.071672
	0.074249
	0.071672
	0.070705
	0.070705
	0.073282
	0.070705
	0.068772
	0.072638
	0.073604
	0.070705
	0.069094
	0.074893
	0.071349
	0.070705
	0.066517
	0.071994
	0.070061
	0.068450
	0.067162
	0.071027
	0.070383
	0.064263
	0.068450
	0.069739
	0.069417
	0.065229
	0.069094
	0.070061
	0.069739
	0.065229
	0.066517
	0.069094
	0.067162
	0.064585
	0.065551
	0.069094
	0.064585
	0.062652
	0.066195
	0.068450
	0.065873
	0.062652
	0.065229
	0.065551
	0.064263
	0.060075
	0.065873
	0.063940
	0.063618
	0.059753
	0.065229
	0.064907
	0.062330
	0.059431
	0.063940
	0.063940
	0.060397
	0.060397
	0.062652
	0.063618
	0.059753
	0.061041
	0.062008
	0.062652
	0.056854
	0.058464
	0.060719
	0.059753
	0.057176
	0.059109
	0.062974
	0.059753
	0.057820
	0.058142
	0.059753
	0.057498
	0.055565
	0.058464
	0.059109
	0.058464
	0.054599
	0.057498
	0.058464
	0.057176
	0.053310
	0.057820
	0.057176
	0.056532
	0.053632
	0.057498
	0.056854
	0.055565
	0.053632
	0.057176
	0.056209
	0.052666
	0.052666
	0.056532
	0.056532
	0.051055
	0.053310
	0.054277
	0.053310
	0.050411
	0.053632
	0.052988
	0.053632
	0.049445
	0.053632
	0.053310
	0.051700
	0.048156
	0.052666
	0.052344
	0.048800
	0.048800
	0.051055
	0.051700
	0.048478
	0.048800
	0.048800
	0.049767
	0.047512
	0.046868
	0.049767
	0.050411
	0.047512
	0.044613
	0.049123
	0.049123
	0.047190
	0.045257
	0.050411
	0.047834
	0.048478
	0.044291
	0.046868
	0.048156
	0.046868
	0.042680
	0.046223
	0.046223
	0.043324
	0.043324
	0.045901
	0.046868
	0.044291
	0.042680
	0.042680
	0.045579
	0.043969
	0.041392
	0.043002
	0.044613
	0.042680
	0.038814
	0.043969
	0.043324
	0.043002
	0.039459
	0.041714
	0.040425
	0.041714
	0.039459
	0.041392
	0.043646
	0.043324
	0.036560
	0.039459
	0.042036
	0.039781
	0.038814
	0.041392
	0.042036
	0.038170
	0.037526
	0.037204
	0.039459
	0.039459
	0.035271
	0.036237
	0.038814
	0.038492
	0.033983
	0.038492
	0.038492
	0.037848
	0.034305
	0.036560
	0.036237
	0.037526
	0.033660
	0.035271
	0.037848
	0.035915
	0.032694
	0.032694
	0.037204
	0.034627
	0.032694
	0.030439
	0.035271
	0.033338
	0.033338
	0.031083
	0.034305
	0.034627
	0.032050
	0.030761
	0.034305
	0.034305
	0.030117
	0.030117
	0.032050
	0.033016
	0.028829
	0.027218
	0.029151
	0.033016
	0.031083
	0.026574
	0.026896
	0.030117
	0.030439
	0.027218
	0.028829
	0.030439
	0.031728
	0.026574
	0.028506
	0.031083
	0.030761
	0.026252
	0.025929
	0.028184
	0.029151
	0.025285
	0.023997
	0.026574
	0.028506
	0.026896
	0.023997
	0.023352
	0.026574
	0.027218
	0.023030
	0.023352
	0.024319
	0.026252
	0.024641
	0.023997
	0.024319
	0.025929
	0.023352
	0.021097
	0.021742
	0.024641
	0.022708
	0.018843
	0.023352
	0.022708
	0.021097
	0.017554
	0.020775
	0.021420
	0.022708
	0.018520
	0.017232
	0.020775
	0.022708
	0.020453
	0.018198
	0.022386
	0.021420
	0.018843
	0.015943
	0.019809
	0.018198
	0.019165
	0.014333
	0.017554
	0.017554
	0.018843
	0.014655
	0.016910
	0.017554
	0.015943
	0.013689
	0.017554
	0.017876
	0.016266
	0.015299
	0.016266
	0.018198
	0.014977
	0.013366
	0.011756
	0.016588
	0.013366
	0.009823
	0.013044
	0.014333
	0.014333
	0.010789
	0.013044
	0.013044
	0.014011
	0.008857
	0.011756
	0.013044
	0.013689
	0.007890
	0.012400
	0.013366
	0.011756
	0.007890
	0.010467
	0.012400
	0.011756
	0.007890
	0.010145
	0.012078
	0.007890
	0.007890
	0.008857
	0.011756
	0.009823
	0.005635
	0.007890
	0.010145
	0.007890
	0.004347
	0.007890
	0.007246
	0.009501
	0.004347
	0.006924
	0.008212
	0.008212
	0.003058
	0.005313
	0.007246
	0.006602
	0.003058
	0.004025
	0.007890
	0.005313
	0.003703
	0.001448
	0.006602
	0.005635
	0.005313
	0.000159
	0.004347
	0.006602
	0.004669
	0.002414
	0.001770
	0.004669
	0.003058
	0.002736
	-0.001129
	0.002414
	0.002414
	0.002736
	-0.001129
	0.004669
	0.002736
	0.001448
	-0.002096
	0.002092
	0.002092
	0.001770
	-0.000485
	0.000481
	0.002736
	-0.000163
	-0.003062
	0.000159
	0.002414
	-0.001451
	-0.003706
	-0.003384
	0.001126
	-0.002418
	-0.004351
	-0.003384
	-0.000807
	-0.000485
	-0.003384
	-0.003062
	-0.001451
	0.001448
	-0.004351
	-0.004351
	-0.002418
	-0.003062
	-0.004351
	-0.005961
	-0.004028
	-0.002418
	-0.004351
	-0.009505
	-0.005317
	-0.004351
	-0.003706
	-0.009827
	-0.005961
	-0.004673
	-0.003706
	-0.007894
	-0.006606
	-0.006606
	-0.004995
	-0.007572
	-0.011437
	-0.007250
	-0.006283
	-0.008538
	-0.010793
	-0.007572
	-0.007894
	-0.008216
	-0.012404
	-0.009505
	-0.007572
	-0.006928
	-0.012082
	-0.010793
	-0.007572
	-0.007894
	-0.012082
	-0.013370
	-0.009183
	-0.010793
	-0.012082
	-0.014981
	-0.008860
	-0.010793
	-0.012726
	-0.015625
	-0.010793
	-0.009827
	-0.013048
	-0.016591
	-0.011760
	-0.011115
	-0.014337
	-0.014337
	-0.013048
	-0.010471
	-0.012726
	-0.013692
	-0.014981
	-0.013048
	-0.015625
	-0.017880
	-0.015947
	-0.012726
	-0.016591
	-0.019168
	-0.015947
	-0.016269
	-0.016591
	-0.019491
	-0.014981
	-0.015947
	-0.017558
	-0.019491
	-0.015303
	-0.016914
	-0.017558
	-0.020135
	-0.014659
	-0.017880
	-0.020779
	-0.021745
	-0.017880
	-0.018846
	-0.023034
	-0.020135
	-0.019168
	-0.018524
	-0.022712
	-0.020457
	-0.020135
	-0.018846
	-0.023034
	-0.021423
	-0.019168
	-0.020457
	-0.024967
	-0.021745
	-0.019813
	-0.022390
	-0.025289
	-0.022390
	-0.021101
	-0.024000
	-0.025289
	-0.024967
	-0.022068
	-0.024967
	-0.024967
	-0.022390
	-0.023034
	-0.026577
	-0.029799
	-0.023678
	-0.024323
	-0.026255
	-0.028510
	-0.023034
	-0.025611
	-0.026577
	-0.030443
	-0.025611
	-0.026900
	-0.029799
	-0.031087
	-0.028188
	-0.028510
	-0.030765
	-0.030443
	-0.027544
	-0.025289
	-0.030121
	-0.031731
	-0.029477
	-0.028510
	-0.030121
	-0.031409
	-0.030443
	-0.029154
	-0.032054
	-0.033986
	-0.029477
	-0.030121
	-0.032698
	-0.033342
	-0.028188
	-0.030121
	-0.033342
	-0.033342
	-0.029154
	-0.032376
	-0.033664
	-0.033342
	-0.030443
	-0.033020
	-0.034631
	-0.032698
	-0.031731
	-0.033986
	-0.037852
	-0.033020
	-0.033664
	-0.035597
	-0.037530
	-0.033020
	-0.034953
	-0.039785
	-0.038174
	-0.034308
	-0.035597
	-0.038496
	-0.034631
	-0.036563
	-0.037208
	-0.040107
	-0.036241
	-0.036241
	-0.037208
	-0.040107
	-0.036241
	-0.037530
	-0.040751
	-0.040751
	-0.037208
	-0.037208
	-0.040751
	-0.042362
	-0.038174
	-0.038818
	-0.042684
	-0.042684
	-0.041073
	-0.037852
	-0.041073
	-0.041395
	-0.039785
	-0.038174
	-0.043650
	-0.043650
	-0.039785
	-0.041717
	-0.045261
	-0.043006
	-0.040751
	-0.042362
	-0.045905
	-0.045583
	-0.042362
	-0.043972
	-0.044294
	-0.044294
	-0.041395
	-0.043972
	-0.046549
	-0.042684
	-0.040751
	-0.044617
	-0.046549
	-0.043650
	-0.045583
	-0.048160
	-0.048804
	-0.043650
	-0.046227
	-0.048160
	-0.048482
	-0.045583
	-0.046549
	-0.048482
	-0.050415
	-0.046227
	-0.045905
	-0.050737
	-0.050415
	-0.047194
	-0.046549
	-0.049771
	-0.048482
	-0.047838
	-0.046227
	-0.051703
	-0.051381
	-0.049448
	-0.048804
	-0.052670
	-0.052992
	-0.049771
	-0.049448
	-0.055247
	-0.052025
	-0.049771
	-0.054925
	-0.054925
	-0.051059
	-0.050737
	-0.055569
	-0.052670
	-0.052025
	-0.051703
	-0.055569
	-0.053314
	-0.053314
	-0.054925
	-0.055891
	-0.053636
	-0.053958
	-0.057824
	-0.056213
	-0.053314
	-0.053636
	-0.059112
	-0.053636
	-0.054925
	-0.056213
	-0.059434
	-0.053958
	-0.054603
	-0.059112
	-0.057180
	-0.054925
	-0.056535
	-0.061367
	-0.057502
	-0.057824
	-0.057502
	-0.062011
	-0.058468
	-0.058790
	-0.056535
	-0.062978
	-0.059757
	-0.058468
	-0.059112
	-0.064266
	-0.060723
	-0.058146
	-0.060723
	-0.061689
	-0.059434
	-0.057502
	-0.061045
	-0.062334
	-0.061045
	-0.060079
	-0.063944
	-0.064588
	-0.062334
	-0.061689
	-0.063300
	-0.065233
	-0.059757
	-0.062011
	-0.064911
	-0.066521
	-0.061367
	-0.063944
	-0.064266
	-0.065233
	-0.063622
	-0.064588
	-0.067488
	-0.066199
	-0.064266
	-0.063300
	-0.068454
	-0.065877
	-0.065555
	-0.065555
	-0.071031
	-0.065233
	-0.064588
	-0.067488
	-0.068132
	-0.065555
	-0.067165
	-0.069420
	-0.067488
	-0.067165
	-0.066843
	-0.071031
	-0.068454
	-0.067810
	-0.069420
	-0.071675
	-0.069420
	-0.068454
	-0.070709
	-0.071031
	-0.069098
	-0.068132
	-0.073930
	-0.072964
	-0.070065
	-0.072320
	-0.074252
	-0.072642
	-0.070387
	-0.073286
	-0.073930
	-0.071031
	-0.071675
	-0.075219
	-0.073608
	-0.071997
	-0.074252
	-0.076507
	-0.075219
	-0.073286
	-0.076185
	-0.075541
	-0.073608
	-0.072320
	-0.078118
	-0.074252
	-0.072642
	-0.074574
	-0.076829
	-0.075541
	-0.074252
	-0.078118
	-0.078440
	-0.077151
	-0.075219
	-0.078762
	-0.078440
	-0.077151
	-0.078118
	-0.080695
	-0.079406
	-0.075541
	-0.077151
	-0.080051
	-0.077474
	-0.076507
	-0.078762
	-0.081661
	-0.076185
	-0.078118
	-0.081661
	-0.083594
	-0.078762
	-0.080373
	-0.082305
	-0.082950
	-0.080373
	-0.080695
	-0.085205
	-0.082305
	-0.081339
	-0.080695
	-0.085205
	-0.083272
	-0.081661
	-0.082305
	-0.085849
	-0.081983
	-0.079406
	-0.084882
	-0.085205
	-0.083594
	-0.082305
	-0.085205
	-0.085527
	-0.082628
	-0.082628
	-0.086493
	-0.087137
	-0.084238
	-0.085527
	-0.087460
	-0.087460
	-0.083272
	-0.086171
	-0.088748
	-0.085849
	-0.083272
	-0.087137
	-0.089070
	-0.084882
	-0.086171
	-0.088426
	-0.091325
	-0.085205
	-0.085849
	-0.089392
	-0.089714
	-0.086171
	-0.086493
	-0.089714
	-0.090037
	-0.087460
	-0.088426
	-0.093258
	-0.087782
	-0.088104
	-0.090681
	-0.092614
	-0.087460
	-0.089392
	-0.092291
	-0.093580
	-0.089070
	-0.091325
	-0.093258
	-0.091969
	-0.091969
	-0.092614
	-0.095835
	-0.092291
	-0.091647
	-0.092614
	-0.095513
	-0.091969
	-0.093902
	-0.096479
	-0.095191
	-0.091325
	-0.092936
	-0.096157
	-0.091325
	-0.092614
	-0.096157
	-0.097768
	-0.093580
	-0.096479
	-0.098090
	-0.097445
	-0.093902
	-0.095835
	-0.098412
	-0.096801
	-0.096479
	-0.097123
	-0.100345
	-0.096479
	-0.096157
	-0.095191
	-0.100989
	-0.096479
	-0.096479
	-0.099056
	-0.101311
	-0.096801
	-0.097123
	-0.100667
	-0.102277
	-0.100345
	-0.098090
	-0.101633
	-0.101311
	-0.099378
	-0.097445
	-0.101311
	-0.102277
	-0.098734
	-0.099056
	-0.103566
	-0.103888
	-0.100345
	-0.101955
	-0.105499
	-0.103566
	-0.099700
	-0.103244
	-0.104854
	-0.103888
	-0.101311
	-0.103888
	-0.106465
	-0.103244
	-0.101311
	-0.103566
	-0.106787
	-0.102599
	-0.104210
	-0.105177
	-0.109042
	-0.102599
	-0.103244
	-0.107754
	-0.108398
	-0.104854
	-0.105821
	-0.108720
	-0.108076
	-0.107754
	-0.106465
	-0.109364
	-0.108720
	-0.106465
	-0.105821
	-0.109686
	-0.109042
	-0.107754
	-0.106143
	-0.112263
	-0.112263
	-0.109042
	-0.109686
	-0.113552
	-0.112585
	-0.109042
	-0.110008
	-0.110331
	-0.112908
	-0.109364
	-0.110331
	-0.112908
	-0.116129
	-0.110331
	-0.111941
	-0.115485
	-0.114518
	-0.110975
	-0.111619
	-0.114518
	-0.113230
	-0.111941
	-0.111297
	-0.115807
	-0.114840
	-0.113552
	-0.112263
	-0.114840
	-0.116773
	-0.113552
	-0.113874
	-0.117417
	-0.118706
	-0.112585
	-0.115162
	-0.116773
	-0.116773
	-0.113230
	-0.116129
	-0.118062
	-0.116451
	-0.115485
	-0.116451
	-0.119672
	-0.117095
	-0.116129
	-0.116773
	-0.121927
	-0.116451
	-0.117417
	-0.118706
	-0.121605
	-0.118062
	-0.116773
	-0.119994
	-0.120639
	-0.118384
	-0.119028
	-0.121605
	-0.119350
	-0.118062
	-0.118062
	-0.124182
	-0.121605
	-0.120961
	-0.121927
	-0.124182
	-0.122249
	-0.120317
	-0.124826
	-0.125471
	-0.123538
	-0.119994
	-0.125471
	-0.123860
	-0.121927
	-0.123216
	-0.126437
	-0.123216
	-0.120961
	-0.124826
	-0.124504
	-0.123216
	-0.122249
	-0.124504
	-0.127081
	-0.125793
	-0.123216
	-0.126759
	-0.128370
	-0.124182
	-0.123860
	-0.126759
	-0.128048
	-0.123860
	-0.126115
	-0.127081
	-0.129980
	-0.125471
	-0.125471
	-0.126115
	-0.129980
	-0.126437
	-0.126437
	-0.128048
	-0.131913
	-0.128370
	-0.125793
	-0.131591
	-0.132235
	-0.129014
	-0.127403
	-0.132235
	-0.129658
	-0.129014
	-0.128692
	-0.132235
	-0.131591
	-0.129980
	-0.129336
	-0.132235
	-0.133524
	-0.129014
	-0.130625
	-0.133202
	-0.133846
	-0.130302
	-0.131913
	-0.135456
	-0.135134
	-0.131269
	-0.132235
	-0.135134
	-0.132557
	-0.131591
	-0.130947
	-0.134812
	-0.132235
	-0.132235
	-0.131591
	-0.138034
	-0.133202
	-0.133202
	-0.135134
	-0.137711
	-0.135456
	-0.133524
	-0.139000
	-0.137711
	-0.135779
	-0.135779
	-0.139000
	-0.137067
	-0.135456
	-0.136101
	-0.139644
	-0.138356
	-0.135456
	-0.137389
	-0.139322
	-0.138678
	-0.135779
	-0.137389
	-0.140933
	-0.139000
	-0.136745
	-0.141577
	-0.142865
	-0.139322
	-0.139322
	-0.141255
	-0.142221
	-0.139644
	-0.140288
	-0.140933
	-0.144154
	-0.140288
	-0.140611
	-0.142543
	-0.144476
	-0.139966
	-0.141577
	-0.144476
	-0.142221
	-0.140288
	-0.140933
	-0.147053
	-0.141899
	-0.141899
	-0.143832
	-0.147053
	-0.142543
	-0.142543
	-0.145120
	-0.144476
	-0.144798
	-0.143510
	-0.147375
	-0.146409
	-0.143188
	-0.144154
	-0.147697
	-0.146087
	-0.143510
	-0.147053
	-0.147375
	-0.145442
	-0.143188
	-0.149308
	-0.150274
	-0.146731
	-0.148019
	-0.151885
	-0.147375
	-0.144798
	-0.148986
	-0.149308
	-0.148019
	-0.146731
	-0.149308
	-0.148986
	-0.148019
	-0.147375
	-0.150596
	-0.152207
	-0.148342
	-0.149630
	-0.152529
	-0.152851
	-0.149308
	-0.149630
	-0.152529
	-0.151241
	-0.149952
	-0.152529
	-0.155751
	-0.151885
	-0.151241
	-0.151563
	-0.154462
	-0.149952
	-0.150919
	-0.153173
	-0.155106
	-0.152529
	-0.154140
	-0.155751
	-0.155428
	-0.152207
	-0.155751
	-0.158005
	-0.153173
	-0.152851
	-0.157039
	-0.156395
	-0.153818
	-0.156395
	-0.158328
	-0.154784
	-0.153173
	-0.159294
	-0.155428
	-0.154462
	-0.158328
	-0.160582
	-0.155751
	-0.157039
	-0.160582
	-0.158005
	-0.158005
	-0.159294
	-0.159616
	-0.156717
	-0.158328
	-0.160260
	-0.158650
	-0.157039
	-0.162193
	-0.158972
	-0.158650
	-0.159294
	-0.161549
	-0.156395
	-0.158005
	-0.161549
	-0.160905
	-0.159294
	-0.160260
	-0.163804
	-0.161871
	-0.161871
	-0.160582
	-0.166059
	-0.159616
	-0.160260
	-0.163482
	-0.164770
	-0.159616
	-0.161871
	-0.164770
	-0.163159
	-0.161549
	-0.164126
	-0.166381
	-0.163159
	-0.162837
	-0.164448
	-0.167025
	-0.164126
	-0.165092
	-0.164770
	-0.168636
	-0.164126
	-0.164448
	-0.165092
	-0.167991
	-0.163482
	-0.166381
	-0.168636
	-0.167669
	-0.164770
	-0.167991
	-0.168636
	-0.165092
	-0.167347
	-0.168636
	-0.170246
	-0.166703
	-0.168958
	-0.170568
	-0.169924
	-0.166703
	-0.170246
	-0.170890
	-0.168958
	-0.166059
	-0.170568
	-0.172823
	-0.167669
	-0.168313
	-0.171535
	-0.172179
	-0.167025
	-0.168958
	-0.172179
	-0.173145
	-0.167669
	-0.171857
	-0.173145
	-0.172823
	-0.171857
	-0.173790
	-0.176045
	-0.174112
	-0.171535
	-0.171535
	-0.175078
	-0.171857
	-0.172179
	-0.172501
	-0.177655
	-0.172501
	-0.172501
	-0.174112
	-0.177011
	-0.172501
	-0.173468
	-0.177977
	-0.174434
	-0.175078
	-0.176045
	-0.177977
	-0.174112
	-0.176045
	-0.177333
	-0.178622
	-0.174756
	-0.176367
	-0.178299
	-0.177977
	-0.175722
	-0.177333
	-0.180554
	-0.177655
	-0.178622
	-0.179588
	-0.181521
	-0.176045
	-0.177333
	-0.180876
	-0.179266
	-0.175722
	-0.179588
	-0.181199
	-0.178944
	-0.176689
	-0.180876
	-0.182165
	-0.178944
	-0.177655
	-0.179910
	-0.183131
	-0.180232
	-0.181521
	-0.183776
	-0.185064
	-0.178944
	-0.182165
	-0.185064
	-0.183453
	-0.182165
	-0.184742
	-0.185708
	-0.182487
	-0.182809
	-0.186353
	-0.184420
	-0.181199
	-0.184742
	-0.185386
	-0.183776
	-0.182487
	-0.187319
	-0.185708
	-0.185064
	-0.184098
	-0.188285
	-0.186030
	-0.186030
	-0.185708
	-0.189252
	-0.185386
	-0.185064
	-0.187319
	-0.190540
	-0.186675
	-0.186675
	-0.189252
	-0.188930
	-0.185708
	-0.186030
	-0.191185
	-0.189896
	-0.187319
	-0.187319
	-0.191829
	-0.189252
	-0.188607
	-0.188285
	-0.193117
	-0.190862
	-0.189574
	-0.191185
	-0.192795
	-0.190862
	-0.189252
	-0.191507
	-0.194406
	-0.190540
	-0.188285
	-0.192795
	-0.192473
	-0.189574
	-0.191185
	-0.195372
	-0.193439
	-0.192795
	-0.192151
	-0.196016
	-0.191507
	-0.191507
	-0.194728
	-0.194406
	-0.193117
	-0.191185
	-0.196983
	-0.195694
	-0.193439
	-0.192151
	-0.197305
	-0.194084
	-0.193762
	-0.196016
	-0.197305
	-0.192473
	-0.195050
	-0.198916
	-0.198593
	-0.195694
	-0.196983
	-0.199882
	-0.195372
	-0.196661
	-0.196983
	-0.199882
	-0.196339
	-0.197627
	-0.198593
	-0.199560
	-0.195372
	-0.197949
	-0.200526
	-0.199238
	-0.197305
	-0.199882
	-0.201815
	-0.198271
	-0.197949
	-0.203425
	-0.204070
	-0.198916
	-0.200848
	-0.203425
	-0.201815
	-0.197949
	-0.202137
	-0.203103
	-0.201493
	-0.201170
	-0.204070
	-0.202137
	-0.200526
	-0.200526
	-0.204392
	-0.201815
	-0.200848
	-0.201815
	-0.204392
	-0.203747
	-0.201493
	-0.206324
	-0.206969
	-0.203747
	-0.202137
	-0.206969
	-0.206647
	-0.203103
	-0.202781
	-0.205680
	-0.205036
	-0.203103
	-0.205680
	-0.208579
	-0.207291
	-0.204714
	-0.206647
	-0.209224
	-0.207935
	-0.205036
	-0.207291
	-0.209546
	-0.205036
	-0.206647
	-0.207613
	-0.211801
	-0.205680
	-0.206647
	-0.209546
	-0.209546
	-0.205036
	-0.208257
	-0.212445
	-0.212123
	-0.209868
	-0.208902
	-0.212445
	-0.209224
	-0.209224
	-0.207613
	-0.214056
	-0.210190
	-0.208579
	-0.208902
	-0.214700
	-0.212123
	-0.210190
	-0.212123
	-0.214378
	-0.211801
	-0.210190
	-0.212767
	-0.213733
	-0.211156
	-0.210834
	-0.214378
	-0.213733
	-0.212445
	-0.211801
	-0.215344
	-0.214700
	-0.212445
	-0.213411
	-0.218243
	-0.214056
	-0.214056
	-0.216310
	-0.217277
	-0.212767
	-0.212445
	-0.216633
	-0.216310
	-0.213089
	-0.212767
	-0.218565
	-0.213733
	-0.215022
	-0.215022
	-0.219532
	-0.215666
	-0.215988
	-0.215344
	-0.219854
	-0.215666
	-0.216633
	-0.218243
	-0.221787
	-0.217599
	-0.217277
	-0.220176
	-0.219532
	-0.215666
	-0.217277
	-0.219532
	-0.218887
	-0.219854
	-0.219210
	-0.222109
	-0.218887
	-0.218887
	-0.219210
	-0.223397
	-0.219854
	-0.220176
	-0.221142
	-0.224041
	-0.220176
	-0.218565
	-0.222753
	-0.221787
	-0.220498
	-0.219532
	-0.224686
	-0.221787
	-0.220176
	-0.221464
	-0.225652
	-0.223075
	-0.221787
	-0.224686
	-0.226296
	-0.223075
	-0.221142
	-0.224041
	-0.223719
	-0.223397
	-0.222109
	-0.226619
	-0.225652
	-0.222109
	-0.223719
	-0.227263
	-0.225008
	-0.223075
	-0.226296
	-0.227585
	-0.225330
	-0.225330
	-0.228873
	-0.229518
	-0.227585
	-0.226941
	-0.229196
	-0.228551
	-0.226296
	-0.227907
	-0.228229
	-0.227585
	-0.226296
	-0.231128
	-0.232095
	-0.228229
	-0.227263
	-0.232739
	-0.231128
	-0.228229
	-0.230162
	-0.233705
	-0.230806
	-0.229196
	-0.232417
	-0.233383
	-0.231128
	-0.230806
	-0.231773
	-0.234350
	-0.232095
	-0.231128
	-0.231773
	-0.234994
	-0.230162
	-0.231450
	-0.233061
	-0.234994
	-0.231128
	-0.234027
	-0.236604
	-0.233061
	-0.232095
	-0.234027
	-0.237893
	-0.232417
	-0.234027
	-0.234672
	-0.235638
	-0.232739
	-0.234350
	-0.237893
	-0.235316
	-0.234994
	-0.235316
	-0.238215
	-0.234027
	-0.236282
	-0.236604
	-0.238859
	-0.234027
	-0.235638
	-0.239504
	-0.236604
	-0.236604
	-0.240470
	-0.239504
	-0.235638
	-0.237249
	-0.239826
	-0.237893
	-0.235960
	-0.241436
	-0.239181
	-0.236282
	-0.237571
	-0.241758
	-0.238537
	-0.238215
	-0.240792
	-0.242403
	-0.240792
	-0.239504
	-0.242725
	-0.242403
	-0.241114
	-0.240148
	-0.244980
	-0.242403
	-0.241114
	-0.242081
	-0.244013
	-0.239826
	-0.238537
	-0.242403
	-0.243047
	-0.241758
	-0.240148
	-0.245946
	-0.241758
	-0.241436
	-0.243047
	-0.246268
	-0.242403
	-0.242725
	-0.244658
	-0.244336
	-0.243047
	-0.241758
	-0.246913
	-0.244658
	-0.243369
	-0.244013
	-0.247557
	-0.244658
	-0.243369
	-0.246590
	-0.247557
	-0.245302
	-0.244658
	-0.251100
	-0.245946
	-0.245624
	-0.248201
	-0.250778
	-0.244980
	-0.246913
	-0.250456
	-0.249490
	-0.247557
	-0.247879
	-0.253033
	-0.247879
	-0.248845
	-0.248523
	-0.251744
	-0.248201
	-0.248523
	-0.251100
	-0.252711
	-0.248845
	-0.247879
	-0.252389
	-0.252389
	-0.250456
	-0.249490
	-0.254644
	-0.250456
	-0.249490
	-0.252067
	-0.255288
	-0.250456
	-0.251422
	-0.253033
	-0.252389
	-0.251422
	-0.251422
	-0.254644
	-0.253033
	-0.252711
	-0.251422
	-0.256254
	-0.253033
	-0.252711
	-0.256576
	-0.257221
	-0.253677
	-0.252067
	-0.257865
	-0.253355
	-0.254321
	-0.255288
	-0.259798
	-0.253355
	-0.253677
	-0.256576
	-0.257221
	-0.252711
	-0.256254
	-0.260120
	-0.254966
	-0.257543
	-0.257865
	-0.260120
	-0.256576
	-0.258187
	-0.259475
	-0.258831
	-0.256576
	-0.259475
	-0.259798
	-0.255932
	-0.256898
	-0.259798
	-0.260442
	-0.256898
	-0.259798
	-0.261730
	-0.262052
	-0.256898
	-0.260764
	-0.262052
	-0.260120
	-0.261408
	-0.263663
	-0.263019
	-0.258831
	-0.261408
	-0.262697
	-0.261408
	-0.259153
	-0.262052
	-0.263019
	-0.263341
	-0.260120
	-0.261730
	-0.265274
	-0.262052
	-0.261086
	-0.264952
	-0.266240
	-0.260120
	-0.262375
	-0.265918
	-0.265596
	-0.260764
	-0.263985
	-0.266240
	-0.262697
	-0.263341
	-0.264630
	-0.265274
	-0.261730
	-0.263341
	-0.265918
	-0.268495
	-0.263663
	-0.264630
	-0.267207
	-0.267851
	-0.263663
	-0.265918
	-0.269139
	-0.265596
	-0.264630
	-0.269461
	-0.270428
	-0.266240
	-0.267529
	-0.269139
	-0.271394
	-0.266884
	-0.267851
	-0.269139
	-0.268495
	-0.265596
	-0.268817
	-0.270428
	-0.270750
	-0.267529
	-0.270106
	-0.272361
	-0.271394
	-0.268817
	-0.271072
	-0.273005
	-0.269461
	-0.270750
	-0.272683
	-0.273327
	-0.269461
	-0.271716
	-0.273971
	-0.273005
	-0.269139
	-0.271394
	-0.274615
	-0.272038
	-0.270428
	-0.274293
	-0.275582
	-0.273327
	-0.272361
	-0.275582
	-0.275582
	-0.270750
	-0.275260
	-0.276870
	-0.274293
	-0.273005
	-0.277515
	-0.275904
	-0.272361
	-0.275582
	-0.276548
	-0.275260
	-0.273327
	-0.277515
	-0.277192
	-0.274293
	-0.274938
	-0.277837
	-0.277515
	-0.276548
	-0.277515
	-0.278481
	-0.277515
	-0.275260
	-0.278803
	-0.279769
	-0.277515
	-0.276226
	-0.281058
	-0.279447
	-0.274615
	-0.277192
	-0.281058
	-0.279125
	-0.276548
	-0.282669
	-0.281380
	-0.278481
	-0.279447
	-0.282024
	-0.282024
	-0.279125
	-0.280092
	-0.283635
	-0.283957
	-0.280736
	-0.283635
	-0.284279
	-0.281058
	-0.279447
	-0.282669
	-0.283313
	-0.279447
	-0.279447
	-0.283957
	-0.283313
	-0.279447
	-0.283957
	-0.285568
	-0.284601
	-0.281380
	-0.284924
	-0.285246
	-0.283313
	-0.282024
	-0.286212
	-0.286856
	-0.283957
	-0.284279
	-0.285246
	-0.286212
	-0.283957
	-0.285890
	-0.288789
	-0.285890
	-0.283957
	-0.286212
	-0.288789
	-0.285568
	-0.287178
	-0.289111
	-0.290400
	-0.284924
	-0.286856
	-0.288145
	-0.288467
	-0.285890
	-0.287178
	-0.291044
	-0.287178
	-0.287501
	-0.287823
	-0.292010
	-0.287178
	-0.288467
	-0.291688
	-0.290400
	-0.286534
	-0.289433
	-0.293943
	-0.289111
	-0.289755
	-0.292332
	-0.292977
	-0.288467
	-0.290400
	-0.292977
	-0.290400
	-0.288145
	-0.293943
	-0.293943
	-0.291044
	-0.291688
	-0.293299
	-0.292655
	-0.290400
	-0.292010
	-0.293621
	-0.295232
	-0.291044
	-0.294587
	-0.295232
	-0.292010
	-0.291366
	-0.295876
	-0.295876
	-0.293943
	-0.293943
	-0.296842
	-0.293299
	-0.292010
	-0.296520
	-0.295876
	-0.294265
	-0.294909
	-0.299741
	-0.293621
	-0.293943
	-0.295554
	-0.298775
	-0.295554
	-0.295232
	-0.297486
	-0.297809
	-0.296520
	-0.294909
	-0.299741
	-0.296520
	-0.295554
	-0.296520
	-0.299097
	-0.296198
	-0.297486
	-0.299097
	-0.301030
	-0.297486
	-0.297164
	-0.301996
	-0.297164
	-0.298131
	-0.299741
	-0.303929
	-0.300064
	-0.300708
	-0.301352
	-0.301352
	-0.299097
	-0.300064
	-0.302963
	-0.297164
	-0.298775
	-0.300386
	-0.303607
	-0.300064
	-0.301030
	-0.301996
	-0.304895
	-0.300386
	-0.301030
	-0.305540
	-0.301674
	-0.301674
	-0.303607
	-0.306506
	-0.300386
	-0.301996
	-0.304251
	-0.303929
	-0.300708
	-0.304573
	-0.304573
	-0.302318
	-0.302641
	-0.307472
	-0.304573
	-0.303929
	-0.305862
	-0.306184
	-0.304251
	-0.304895
	-0.308117
	-0.306184
	-0.305218
	-0.305862
	-0.309083
	-0.306828
	-0.305218
	-0.308117
	-0.308761
	-0.305862
	-0.304895
	-0.310372
	-0.306506
	-0.306828
	-0.306828
	-0.311982
	-0.305862
	-0.307795
	-0.311016
	-0.311338
	-0.308117
	-0.310372
	-0.311660
	-0.307150
	-0.309083
	-0.311660
	-0.312304
	-0.308117
	-0.310049
	-0.310694
	-0.310372
	-0.308117
	-0.310694
	-0.311660
	-0.311660
	-0.310049
	-0.312949
	-0.313593
	-0.310694
	-0.311016
	-0.314559
	-0.310694
	-0.310049
	-0.311660
	-0.313915
	-0.312304
	-0.310372
	-0.316170
	-0.312949
	-0.311660
	-0.311338
	-0.316170
	-0.312304
	-0.313271
	-0.313915
	-0.316492
	-0.311982
	-0.313915
	-0.317458
	-0.316170
	-0.313915
	-0.315203
	-0.318747
	-0.314559
	-0.313271
	-0.316492
	-0.318103
	-0.313915
	-0.316492
	-0.318747
	-0.315526
	-0.313593
	-0.317458
	-0.317458
	-0.314559
	-0.314559
	-0.319391
	-0.317136
	-0.316814
	-0.320680
	-0.320035
	-0.315203
	-0.317780
	-0.320035
	-0.318747
	-0.317136
	-0.316814
	-0.320680
	-0.317458
	-0.318103
	-0.319713
	-0.321646
	-0.317458
	-0.319391
	-0.322935
	-0.320680
	-0.318425
	-0.321968
	-0.323257
	-0.321968
	-0.320035
	-0.325189
	-0.323579
	-0.319713
	-0.322290
	-0.325834
	-0.321324
	-0.320035
	-0.322935
	-0.322935
	-0.322290
	-0.321646
	-0.325189
	-0.323579
	-0.322935
	-0.321324
	-0.325834
	-0.323901
	-0.321968
	-0.323257
	-0.327444
	-0.322935
	-0.322935
	-0.327122
	-0.326478
	-0.325512
	-0.323579
	-0.329377
	-0.325189
	-0.324223
	-0.325834
	-0.330021
	-0.323901
	-0.326478
	-0.328733
	-0.329055
	-0.325834
	-0.328089
	-0.329699
	-0.326800
	-0.326800
	-0.326800
	-0.331310
	-0.327444
	-0.327766
	-0.328089
	-0.331632
	-0.326156
	-0.328733
	-0.331954
	-0.329377
	-0.328411
	-0.330021
	-0.332920
	-0.327444
	-0.329699
	-0.331310
	-0.330666
	-0.328733
	-0.331954
	-0.334209
	-0.328733
	-0.330021
	-0.333243
	-0.330988
	-0.330343
	-0.332598
	-0.334209
	-0.331954
	-0.330021
	-0.334209
	-0.331954
	-0.331954
	-0.332276
	-0.335497
	-0.332920
	-0.332276
	-0.334531
	-0.335175
	-0.332920
	-0.330666
	-0.337752
	-0.334531
	-0.333565
	-0.334531
	-0.338074
	-0.333565
	-0.333565
	-0.336786
	-0.335820
	-0.333565
	-0.334209
	-0.338074
	-0.333565
	-0.335820
	-0.337108
	-0.339685
	-0.334853
	-0.337108
	-0.340007
	-0.338719
	-0.336142
	-0.336142
	-0.340329
	-0.336142
	-0.337108
	-0.338397
	-0.341618
	-0.336464
	-0.337108
	-0.342262
	-0.340007
	-0.338397
	-0.338397
	-0.340652
	-0.336464
	-0.340007
	-0.340007
	-0.341940
	-0.339041
	-0.340007
	-0.341940
	-0.340007
	-0.338719
	-0.339685
	-0.344517
	-0.340007
	-0.341296
	-0.342906
	-0.344517
	-0.339685
	-0.340974
	-0.346450
	-0.340974
	-0.340974
	-0.342906
	-0.347094
	-0.339685
	-0.341940
	-0.346128
	-0.344517
	-0.341618
	-0.343551
	-0.346450
	-0.342584
	-0.342906
	-0.343229
	-0.347094
	-0.343229
	-0.343229
	-0.346128
	-0.347094
	-0.343551
	-0.343551
	-0.347738
	-0.346128
	-0.345161
	-0.346128
	-0.350960
	-0.346450
	-0.346128
	-0.346772
	-0.350960
	-0.345483
	-0.346450
	-0.348705
	-0.348060
	-0.346128
	-0.345806
	-0.350960
	-0.347738
	-0.347738
	-0.347738
	-0.351282
	-0.347738
	-0.346450
	-0.350315
	-0.351282
	-0.348705
	-0.348383
	-0.353859
	-0.349349
	-0.348060
	-0.349349
	-0.352892
	-0.349027
	-0.349027
	-0.351926
	-0.352570
	-0.350637
	-0.348383
	-0.353214
	-0.350637
	-0.350637
	-0.352248
	-0.354181
	-0.349027
	-0.350960
	-0.353859
	-0.353537
	-0.352892
	-0.352892
	-0.356758
	-0.352248
	-0.351604
	-0.351604
	-0.357080
	-0.351926
	-0.352892
	-0.355791
	-0.355469
	-0.352248
	-0.354181
	-0.357724
	-0.353537
	-0.354503
	-0.356758
	-0.357080
	-0.353214
	-0.356114
	-0.356758
	-0.355791
	-0.355469
	-0.355469
	-0.359335
	-0.354825
	-0.357724
	-0.358368
	-0.356758
	-0.353859
	-0.358046
	-0.360623
	-0.356436
	-0.356758
	-0.360301
	-0.359013
	-0.355791
	-0.359657
	-0.360623
	-0.357402
	-0.355791
	-0.361590
	-0.358368
	-0.358046
	-0.360946
	-0.361590
	-0.358691
	-0.359335
	-0.363200
	-0.358046
	-0.358691
	-0.359979
	-0.364167
	-0.359335
	-0.361912
	-0.363845
	-0.360623
	-0.359979
	-0.360301
	-0.364811
	-0.359979
	-0.360946
	-0.361590
	-0.362878
	-0.361590
	-0.362878
	-0.366100
	-0.361590
	-0.362234
	-0.363200
	-0.363523
	-0.359979
	-0.362878
	-0.366100
	-0.362556
	-0.362556
	-0.365133
	-0.366100
	-0.361590
	-0.364489
	-0.367388
	-0.364811
	-0.362556
	-0.367066
	-0.366100
	-0.364489
	-0.365133
	-0.368999
	-0.366422
	-0.365133
	-0.365455
	-0.368677
	-0.365777
	-0.364167
	-0.368999
	-0.368677
	-0.365777
	-0.365133
	-0.371576
	-0.368677
	-0.366422
	-0.367388
	-0.370287
	-0.366100
	-0.365455
	-0.370931
	-0.369321
	-0.367388
	-0.366744
	-0.372542
	-0.366100
	-0.368354
	-0.368677
	-0.369965
	-0.367710
	-0.370609
	-0.373186
	-0.369321
	-0.369321
	-0.370287
	-0.370609
	-0.368354
	-0.370287
	-0.371898
	-0.370609
	-0.368999
	-0.372220
	-0.374475
	-0.369321
	-0.370931
	-0.373186
	-0.372864
	-0.369321
	-0.373831
	-0.373508
	-0.372220
	-0.369965
	-0.375119
	-0.374153
	-0.371254
	-0.373831
	-0.374797
	-0.373508
	-0.371254
	-0.374797
	-0.375119
	-0.373831
	-0.372542
	-0.375763
	-0.374153
	-0.372220
	-0.375763
	-0.377052
	-0.375763
	-0.373508
	-0.378018
	-0.374797
	-0.373508
	-0.374797
	-0.380917
	-0.375119
	-0.375441
	-0.377374
	-0.377052
	-0.375441
	-0.377052
	-0.379629
	-0.374153
	-0.375119
	-0.377374
	-0.379629
	-0.374797
	-0.377374
	-0.378662
	-0.377696
	-0.376730
	-0.381562
	-0.379951
	-0.378662
	-0.378018
	-0.382206
	-0.381562
	-0.378662
	-0.378018
	-0.381884
	-0.379951
	-0.377696
	-0.380595
	-0.382528
	-0.378340
	-0.377696
	-0.382850
	-0.382850
	-0.380595
	-0.381240
	-0.384139
	-0.380595
	-0.381562
	-0.382850
	-0.385105
	-0.381562
	-0.381562
	-0.384139
	-0.384139
	-0.383172
	-0.380917
	-0.384783
	-0.382206
	-0.380917
	-0.381562
	-0.387038
	-0.384139
	-0.383494
	-0.386716
	-0.387360
	-0.384139
	-0.383494
	-0.387682
	-0.383817
	-0.383817
	-0.384139
	-0.388326
	-0.382850
	-0.385427
	-0.386716
	-0.388326
	-0.385749
	-0.385427
	-0.388004
	-0.387038
	-0.384139
	-0.383817
	-0.390259
	-0.386394
	-0.387360
	-0.387038
	-0.391548
	-0.386716
	-0.387038
	-0.387038
	-0.390581
	-0.386394
	-0.386716
	-0.388004
	-0.392192
	-0.388971
	-0.387682
	-0.390259
	-0.390581
	-0.387682
	-0.386071
	-0.391870
	-0.391548
	-0.388648
	-0.388971
	-0.392836
	-0.391548
	-0.388971
	-0.391548
	-0.393802
	-0.392192
	-0.388648
	-0.391225
	-0.393480
	-0.392192
	-0.391225
	-0.393158
	-0.394769
	-0.391225
	-0.390259
	-0.391548
	-0.395091
	-0.388971
	-0.390903
	-0.393480
	-0.396057
	-0.389937
	-0.392836
	-0.395091
	-0.395091
	-0.392836
	-0.393802
	-0.396379
	-0.392836
	-0.392836
	-0.395413
	-0.396702
	-0.393158
	-0.394125
	-0.394769
	-0.395735
	-0.392836
	-0.394769
	-0.397990
	-0.396057
	-0.393802
	-0.396379
	-0.399279
	-0.395735
	-0.396057
	-0.396379
	-0.398956
	-0.394125
	-0.395735
	-0.396379
	-0.398956
	-0.396702
	-0.397024
	-0.398634
	-0.400567
	-0.396057
	-0.396057
	-0.401534
	-0.399923
	-0.397346
	-0.397990
	-0.401856
	-0.397024
	-0.397668
	-0.398956
	-0.402178
	-0.397668
	-0.398312
	-0.400567
	-0.400245
	-0.398634
	-0.397668
	-0.401534
	-0.402178
	-0.400889
	-0.399279
	-0.402822
	-0.403788
	-0.399601
	-0.399279
	-0.403466
	-0.402178
	-0.400245
	-0.401534
	-0.404111
	-0.405077
	-0.401211
	-0.401211
	-0.402500
	-0.407010
	-0.401534
	-0.402822
	-0.406043
	-0.404755
	-0.400245
	-0.402500
	-0.405077
	-0.405399
	-0.403466
	-0.403466
	-0.406688
	-0.404111
	-0.403466
	-0.403144
	-0.408298
	-0.405077
	-0.404433
	-0.404433
	-0.408942
	-0.404433
	-0.405077
	-0.407976
	-0.408620
	-0.404433
	-0.403466
	-0.408298
	-0.407654
	-0.405077
	-0.404755
	-0.410875
	-0.407654
	-0.406365
	-0.405077
	-0.408942
	-0.410553
	-0.407010
	-0.407010
	-0.409909
	-0.409265
	-0.405721
	-0.408942
	-0.410553
	-0.408942
	-0.404755
	-0.407654
	-0.410553
	-0.408942
	-0.409587
	-0.410875
	-0.412164
	-0.409265
	-0.408942
	-0.409587
	-0.415063
	-0.409587
	-0.409909
	-0.412808
	-0.414096
	-0.407976
	-0.410875
	-0.413774
	-0.412486
	-0.408942
	-0.410231
	-0.414096
	-0.412164
	-0.411197
	-0.411842
	-0.415385
	-0.412808
	-0.412486
	-0.412808
	-0.415707
	-0.412164
	-0.411197
	-0.414741
	-0.415385
	-0.411842
	-0.410875
	-0.416673
	-0.415063
	-0.413452
	-0.413774
	-0.416996
	-0.411842
	-0.414096
	-0.416351
	-0.416029
	-0.414741
	-0.414419
	-0.418284
	-0.414741
	-0.416673
	-0.416029
	-0.419573
	-0.415063
	-0.415063
	-0.417318
	-0.418928
	-0.414741
	-0.416029
	-0.419250
	-0.416996
	-0.414741
	-0.414741
	-0.419895
	-0.415707
	-0.416673
	-0.416673
	-0.422794
	-0.417962
	-0.417640
	-0.419573
	-0.420539
	-0.419250
	-0.417640
	-0.422472
	-0.417962
	-0.419250
	-0.420539
	-0.423116
	-0.418284
	-0.418606
	-0.421505
	-0.419895
	-0.418928
	-0.419573
	-0.423116
	-0.418606
	-0.420217
	-0.422794
	-0.424405
	-0.418928
	-0.421828
	-0.423116
	-0.421828
	-0.420861
	-0.422150
	-0.424082
	-0.421505
	-0.422472
	-0.423760
	-0.425693
	-0.420217
	-0.422794
	-0.426337
	-0.424405
	-0.422150
	-0.424082
	-0.426337
	-0.421505
	-0.423438
	-0.426659
	-0.428270
	-0.423438
	-0.425693
	-0.428270
	-0.425371
	-0.423116
	-0.424405
	-0.426982
	-0.422472
	-0.425049
	-0.425371
	-0.427948
	-0.423116
	-0.424405
	-0.426337
	-0.428914
	-0.424727
	-0.425371
	-0.429881
	-0.424727
	-0.426337
	-0.427304
	-0.430847
	-0.425371
	-0.425693
	-0.428270
	-0.429559
	-0.426659
	-0.426015
	-0.429559
	-0.428914
	-0.428592
	-0.427948
	-0.431169
	-0.429881
	-0.427626
	-0.428592
	-0.431491
	-0.428592
	-0.426982
	-0.431169
	-0.431169
	-0.429236
	-0.428914
	-0.434390
	-0.430525
	-0.429559
	-0.429881
	-0.433424
	-0.431169
	-0.428914
	-0.431169
	-0.432458
	-0.434068
	-0.430203
	-0.432458
	-0.434068
	-0.432458
	-0.429881
	-0.432458
	-0.435679
	-0.433746
	-0.431169
	-0.432136
	-0.435679
	-0.431813
	-0.432136
	-0.432458
	-0.436967
	-0.434713
	-0.432780
	-0.433102
	-0.436323
	-0.433102
	-0.431169
	-0.436645
	-0.436001
	-0.433746
	-0.431169
	-0.436967
	-0.435357
	-0.433746
	-0.435035
	-0.436323
	-0.433746
	-0.434390
	-0.437290
	-0.438256
	-0.436645
	-0.435357
	-0.437934
	-0.438900
	-0.436001
	-0.436001
	-0.440189
	-0.438256
	-0.434713
	-0.436967
	-0.439222
	-0.437934
	-0.435679
	-0.440189
	-0.438256
	-0.435357
	-0.437612
	-0.440511
	-0.439867
	-0.437612
	-0.439222
	-0.439867
	-0.438256
	-0.436645
	-0.438900
	-0.442122
	-0.437612
	-0.440189
	-0.441799
	-0.442122
	-0.436645
	-0.439544
	-0.444054
	-0.440511
	-0.439222
	-0.441155
	-0.443088
	-0.438900
	-0.441799
	-0.443410
	-0.445343
	-0.442122
	-0.439867
	-0.444054
	-0.442766
	-0.440511
	-0.439544
	-0.444376
	-0.443410
	-0.441155
	-0.440189
	-0.445021
	-0.442444
	-0.440833
	-0.443732
	-0.444376
	-0.441799
	-0.441155
	-0.445987
	-0.445665
	-0.444376
	-0.444054
	-0.446309
	-0.443088
	-0.442122
	-0.445665
	-0.446309
	-0.444054
	-0.441477
	-0.445987
	-0.447276
	-0.446309
	-0.445665
	-0.449208
	-0.446309
	-0.443410
	-0.445665
	-0.448242
	-0.445343
	-0.444054
	-0.448242
	-0.447920
	-0.445343
	-0.445343
	-0.448242
	-0.448242
	-0.445343
	-0.447276
	-0.449208
	-0.450175
	-0.445987
	-0.447920
	-0.451141
	-0.448886
	-0.446953
	-0.447276
	-0.452430
	-0.447920
	-0.447598
	-0.448564
	-0.451141
	-0.447920
	-0.446953
	-0.449530
	-0.451141
	-0.449208
	-0.447276
	-0.451463
	-0.451785
	-0.447920
	-0.449208
	-0.451785
	-0.451463
	-0.447276
	-0.450497
	-0.452752
	-0.450819
	-0.448886
	-0.452752
	-0.453396
	-0.449530
	-0.450819
	-0.452752
	-0.452752
	-0.450497
	-0.451141
	-0.453718
	-0.453074
	-0.449208
	-0.452107
	-0.455973
	-0.451785
	-0.453396
	-0.456617
	-0.455973
	-0.450175
	-0.453396
	-0.455007
	-0.454684
	-0.451785
	-0.453718
	-0.457261
	-0.454362
	-0.453074
	-0.453074
	-0.457261
	-0.453074
	-0.454040
	-0.454362
	-0.458550
	-0.454362
	-0.452430
	-0.456295
	-0.457906
	-0.454362
	-0.454362
	-0.458872
	-0.457261
	-0.455329
	-0.455651
	-0.459838
	-0.456617
	-0.455329
	-0.455651
	-0.459838
	-0.456939
	-0.455007
	-0.457584
	-0.458550
	-0.456939
	-0.456295
	-0.461449
	-0.459838
	-0.457906
	-0.458228
	-0.461771
	-0.458550
	-0.455329
	-0.460483
	-0.461449
	-0.458872
	-0.457906
	-0.462415
	-0.460161
	-0.457906
	-0.459516
	-0.461449
	-0.460483
	-0.458550
	-0.461127
	-0.460483
	-0.460161
	-0.458872
	-0.463704
	-0.460805
	-0.458550
	-0.461449
	-0.463382
	-0.461127
	-0.460483
	-0.465315
	-0.462738
	-0.460483
	-0.460483
	-0.464993
	-0.462093
	-0.461127
	-0.463704
	-0.465959
	-0.463704
	-0.461771
	-0.464993
	-0.465315
	-0.463382
	-0.461127
	-0.464026
	-0.466281
	-0.461127
	-0.464670
	-0.467570
	-0.465315
	-0.461771
	-0.465315
	-0.466603
	-0.462093
	-0.462093
	-0.465637
	-0.466281
	-0.460805
	-0.464993
	-0.467247
	-0.464670
	-0.464670
	-0.467247
	-0.467570
	-0.464348
	-0.465315
	-0.466925
	-0.468858
	-0.464348
	-0.465959
	-0.468536
	-0.466281
	-0.465637
	-0.467247
	-0.469180
	-0.464993
	-0.466281
	-0.469824
	-0.469824
	-0.466603
	-0.469180
	-0.469824
	-0.467570
	-0.466925
	-0.469502
	-0.469824
	-0.467247
	-0.469180
	-0.470791
	-0.470147
	-0.467570
	-0.470791
	-0.470469
	-0.468536
	-0.468858
	-0.471757
	-0.469824
	-0.468214
	-0.468858
	-0.473690
	-0.471757
	-0.469502
	-0.473690
	-0.473368
	-0.470147
	-0.470147
	-0.474012
	-0.473046
	-0.470469
	-0.470791
	-0.473368
	-0.471435
	-0.467892
	-0.470469
	-0.472724
	-0.471435
	-0.470147
	-0.474012
	-0.474978
	-0.472079
	-0.470791
	-0.475945
	-0.475623
	-0.471435
	-0.473690
	-0.474978
	-0.475301
	-0.471435
	-0.473690
	-0.475301
	-0.475301
	-0.472401
	-0.474656
	-0.477233
	-0.474012
	-0.473046
	-0.474334
	-0.476589
	-0.471757
	-0.474656
	-0.476589
	-0.476267
	-0.475623
	-0.477878
	-0.478522
	-0.473690
	-0.474656
	-0.477555
	-0.477555
	-0.473690
	-0.476589
	-0.477555
	-0.477233
	-0.475945
	-0.477555
	-0.479810
	-0.478522
	-0.475945
	-0.475945
	-0.481743
	-0.477233
	-0.477878
	-0.478200
	-0.482387
	-0.477233
	-0.478200
	-0.479488
	-0.482065
	-0.477878
	-0.477878
	-0.481099
	-0.478844
	-0.477233
	-0.476911
	-0.481743
	-0.480455
	-0.478844
	-0.479810
	-0.482709
	-0.480777
	-0.477233
	-0.480455
	-0.482709
	-0.480455
	-0.477878
	-0.482387
	-0.482065
	-0.479810
	-0.479810
	-0.481743
	-0.481421
	-0.478844
	-0.480132
	-0.482387
	-0.483998
	-0.478844
	-0.482065
	-0.483998
	-0.481421
	-0.479810
	-0.483998
	-0.484642
	-0.481743
	-0.481099
	-0.484964
	-0.484642
	-0.481421
	-0.484642
	-0.486575
	-0.483998
	-0.481743
	-0.483032
	-0.483032
	-0.482709
	-0.481099
	-0.484320
	-0.486575
	-0.483998
	-0.482387
	-0.486253
	-0.486575
	-0.483676
	-0.484642
	-0.487219
	-0.485609
	-0.483998
	-0.486897
	-0.487219
	-0.484642
	-0.484642
	-0.489796
	-0.485609
	-0.483676
	-0.485931
	-0.487541
	-0.486253
	-0.483676
	-0.487219
	-0.488830
	-0.487541
	-0.485609
	-0.488186
	-0.489474
	-0.486253
	-0.485609
	-0.488508
	-0.489152
	-0.484320
	-0.487541
	-0.489796
	-0.489474
	-0.486575
	-0.488830
	-0.490118
	-0.488186
	-0.487541
	-0.489152
	-0.491085
	-0.488186
	-0.489796
	-0.491407
	-0.493984
	-0.489796
	-0.489152
	-0.492051
	-0.490441
	-0.487541
	-0.487219
	-0.492373
	-0.487864
	-0.488508
	-0.489796
	-0.493340
	-0.489796
	-0.489474
	-0.492695
	-0.492051
	-0.490763
	-0.488508
	-0.493340
	-0.493662
	-0.491729
	-0.490118
	-0.493984
	-0.494306
	-0.489152
	-0.491729
	-0.494306
	-0.493662
	-0.489474
	-0.492373
	-0.494628
	-0.494950
	-0.492051
	-0.492051
	-0.495917
	-0.494628
	-0.493018
	-0.491407
	-0.497527
	-0.494950
	-0.493662
	-0.494306
	-0.497527
	-0.494950
	-0.493018
	-0.495595
	-0.496883
	-0.494628
	-0.492695
	-0.496239
	-0.495917
	-0.493340
	-0.494306
	-0.497205
	-0.498172
	-0.492695
	-0.494628
	-0.497527
	-0.496883
	-0.493340
	-0.497205
	-0.500104
	-0.497205
	-0.493984
	-0.496883
	-0.499782
	-0.496561
	-0.497527
	-0.496561
	-0.499138
	-0.496239
	-0.496561
	-0.498494
	-0.501393
	-0.497205
	-0.498494
	-0.501071
	-0.500749
	-0.497205
	-0.495917
	-0.502359
	-0.499460
	-0.497849
	-0.499460
	-0.502037
	-0.499460
	-0.497527
	-0.499138
	-0.501393
	-0.499460
	-0.497205
	-0.500749
	-0.503970
	-0.500749
	-0.499782
	-0.501715
	-0.502037
	-0.498172
	-0.499782
	-0.503003
	-0.502681
	-0.499782
	-0.501715
	-0.503326
	-0.500104
	-0.500749
	-0.501393
	-0.503970
	-0.499782
	-0.500749
	-0.502681
	-0.503326
	-0.500426
	-0.499782
	-0.505580
	-0.503003
	-0.502681
	-0.503326
	-0.506869
	-0.502681
	-0.502037
	-0.504936
	-0.504614
	-0.502359
	-0.501071
	-0.505580
	-0.505903
	-0.503003
	-0.502681
	-0.504936
	-0.505903
	-0.500749
	-0.502359
	-0.504614
	-0.506547
	-0.502681
	-0.503970
	-0.507191
	-0.505258
	-0.503326
	-0.504292
	-0.508802
	-0.504614
	-0.505580
	-0.506225
	-0.509124
	-0.507835
	-0.503648
	-0.505580
	-0.507191
	-0.506547
	-0.503326
	-0.506869
	-0.509446
	-0.506869
	-0.506225
	-0.508802
	-0.511379
	-0.505903
	-0.507513
	-0.506225
	-0.510412
	-0.507513
	-0.505903
	-0.505903
	-0.508802
	-0.507835
	-0.504936
	-0.509124
	-0.510735
	-0.507513
	-0.504614
	-0.506869
	-0.510090
	-0.506869
	-0.507513
	-0.507513
	-0.511701
	-0.508802
	-0.506869
	-0.509124
	-0.511701
	-0.508158
	-0.505258
	-0.509124
	-0.510735
	-0.507835
	-0.507835
	-0.511057
	-0.510735
	-0.505580
	-0.509124
	-0.511057
	-0.511379
	-0.508480
	-0.508802
	-0.511701
	-0.511701
	-0.510412
	-0.509446
	-0.514278
	-0.510412
	-0.508802
	-0.512023
	-0.512345
	-0.509768
	-0.508802
	-0.513956
	-0.513956
	-0.510735
	-0.511379
	-0.512023
	-0.512989
	-0.510090
	-0.510412
	-0.510735
	-0.515889
	-0.512345
	-0.511701
	-0.515244
	-0.517177
	-0.513312
	-0.511379
	-0.515889
	-0.516855
	-0.514278
	-0.512989
	-0.514278
	-0.515889
	-0.512667
	-0.512023
	-0.512345
	-0.517499
	-0.513312
	-0.512667
	-0.514922
	-0.517177
	-0.514922
	-0.512023
	-0.515244
	-0.516533
	-0.514922
	-0.513312
	-0.515889
	-0.516855
	-0.514278
	-0.514278
	-0.514600
	-0.519110
	-0.513634
	-0.513312
	-0.516211
	-0.518788
	-0.513956
	-0.513634
	-0.515566
	-0.516533
	-0.515889
	-0.513634
	-0.516211
	-0.519754
	-0.517821
	-0.515889
	-0.515889
	-0.521043
	-0.517177
	-0.517177
	-0.516855
	-0.521687
	-0.517821
	-0.516533
	-0.516211
	-0.518143
	-0.520398
	-0.515889
	-0.517821
	-0.518788
	-0.521687
	-0.517177
	-0.518143
	-0.520398
	-0.522331
	-0.519110
	-0.517499
	-0.519110
	-0.520720
	-0.521043
	-0.517499
	-0.518466
	-0.522009
	-0.521043
	-0.518143
	-0.518466
	-0.522653
	-0.522331
	-0.520076
	-0.520398
	-0.523620
	-0.522975
	-0.519110
	-0.520720
	-0.522331
	-0.523942
	-0.519754
	-0.520398
	-0.523297
	-0.524264
	-0.520720
	-0.519754
	-0.523297
	-0.523297
	-0.520720
	-0.519754
	-0.521365
	-0.524586
	-0.521043
	-0.522653
	-0.522653
	-0.526841
	-0.522009
	-0.522331
	-0.524908
	-0.524264
	-0.520720
	-0.521365
	-0.526841
	-0.523620
	-0.522653
	-0.521687
	-0.525874
	-0.523297
	-0.522331
	-0.523620
	-0.524908
	-0.522975
	-0.521687
	-0.526197
	-0.525874
	-0.523297
	-0.523297
	-0.526841
	-0.526197
	-0.521365
	-0.524908
	-0.526519
	-0.527485
	-0.524586
	-0.526519
	-0.528129
	-0.524908
	-0.524264
	-0.523620
	-0.528129
	-0.526841
	-0.523620
	-0.525230
	-0.528451
	-0.527163
	-0.523620
	-0.525874
	-0.528129
	-0.527163
	-0.525230
	-0.530062
	-0.528451
	-0.525874
	-0.525230
	-0.528129
	-0.530384
	-0.526519
	-0.525552
	-0.527163
	-0.529740
	-0.526519
	-0.526841
	-0.531995
	-0.528774
	-0.527163
	-0.528129
	-0.531351
	-0.531673
	-0.527163
	-0.528451
	-0.530062
	-0.532317
	-0.526197
	-0.528451
	-0.528129
	-0.530706
	-0.528451
	-0.527163
	-0.531995
	-0.531351
	-0.528774
	-0.528129
	-0.531995
	-0.530384
	-0.527485
	-0.530062
	-0.531029
	-0.534572
	-0.529096
	-0.529418
	-0.531351
	-0.531673
	-0.528451
	-0.529740
	-0.533283
	-0.531673
	-0.529418
	-0.528774
	-0.533928
	-0.533928
	-0.530384
	-0.531995
	-0.533283
	-0.532317
	-0.528129
	-0.529740
	-0.533283
	-0.532317
	-0.529418
	-0.531351
	-0.534894
	-0.529740
	-0.530706
	-0.532639
	-0.533606
	-0.528129
	-0.531351
	-0.534250
	-0.531029
	-0.530706
	-0.531995
	-0.536505
	-0.531673
	-0.532961
	-0.532639
	-0.535538
	-0.532317
	-0.531995
	-0.535538
	-0.534894
	-0.533928
	-0.532639
	-0.537471
	-0.533928
	-0.532317
	-0.534572
	-0.534894
	-0.533928
	-0.532961
	-0.537471
	-0.535538
	-0.533283
	-0.533928
	-0.536183
	-0.535538
	-0.532961
	-0.535538
	-0.537149
	-0.536183
	-0.533283
	-0.537471
	-0.538115
	-0.533928
	-0.534250
	-0.539082
	-0.538760
	-0.533283
	-0.535216
	-0.535538
	-0.537471
	-0.533606
	-0.536183
	-0.538115
	-0.538115
	-0.533606
	-0.534572
	-0.540370
	-0.538760
	-0.535860
	-0.534250
	-0.539726
	-0.537793
	-0.536505
	-0.537793
	-0.538760
	-0.536183
	-0.534894
	-0.537471
	-0.538437
	-0.537793
	-0.536183
	-0.538437
	-0.541659
	-0.538437
	-0.536183
	-0.539726
	-0.541014
	-0.536505
	-0.537793
	-0.539082
	-0.538437
	-0.535860
	-0.539082
	-0.542303
	-0.540048
	-0.538115
	-0.538760
	-0.541014
	-0.537149
	-0.538760
	-0.540692
	-0.539404
	-0.537149
	-0.539404
	-0.541014
	-0.538115
	-0.539726
	-0.541981
	-0.542947
	-0.538437
	-0.538115
	-0.541014
	-0.541014
	-0.540370
	-0.541014
	-0.543269
	-0.541981
	-0.540370
	-0.540048
	-0.542625
	-0.542947
	-0.539082
	-0.540692
	-0.543914
	-0.541981
	-0.540370
	-0.540692
	-0.545202
	-0.541014
	-0.540048
	-0.541981
	-0.542947
	-0.540692
	-0.541337
	-0.543269
	-0.543269
	-0.541337
	-0.539082
	-0.543269
	-0.545524
	-0.541014
	-0.540370
	-0.542625
	-0.544558
	-0.540370
	-0.542625
	-0.544880
	-0.544880
	-0.540370
	-0.542625
	-0.545846
	-0.542947
	-0.542303
	-0.541659
	-0.545524
	-0.544880
	-0.542947
	-0.541659
	-0.546491
	-0.544558
	-0.541337
	-0.544236
	-0.545846
	-0.546491
	-0.542303
	-0.545202
	-0.547779
	-0.546491
	-0.544236
	-0.544880
	-0.548745
	-0.544880
	-0.543591
	-0.542947
	-0.547779
	-0.543591
	-0.543591
	-0.543591
	-0.549068
	-0.546168
	-0.546491
	-0.545846
	-0.549390
	-0.547135
	-0.544558
	-0.547135
	-0.548745
	-0.547779
	-0.544880
	-0.548745
	-0.548423
	-0.544558
	-0.547135
	-0.548423
	-0.548745
	-0.544236
	-0.545846
	-0.548101
	-0.549068
	-0.547779
	-0.547135
	-0.553255
	-0.548423
	-0.546813
	-0.546491
	-0.551322
	-0.546813
	-0.544558
	-0.548745
	-0.549712
	-0.547135
	-0.547135
	-0.549712
	-0.550034
	-0.546491
	-0.548423
	-0.548745
	-0.549712
	-0.545524
	-0.547135
	-0.551645
	-0.550356
	-0.548101
	-0.548745
	-0.553255
	-0.547779
	-0.549068
	-0.551000
	-0.551967
	-0.547135
	-0.549712
	-0.553577
	-0.550678
	-0.549712
	-0.549712
	-0.552611
	-0.549390
	-0.548101
	-0.548745
	-0.552611
	-0.550034
	-0.548101
	-0.552611
	-0.553255
	-0.551967
	-0.550678
	-0.553900
	-0.554544
	-0.549712
	-0.551322
	-0.551645
	-0.552289
	-0.548745
	-0.551967
	-0.554222
	-0.552611
	-0.550678
	-0.548423
	-0.553900
	-0.550356
	-0.551322
	-0.553255
	-0.557765
	-0.551645
	-0.551000
	-0.555188
	-0.555188
	-0.552611
	-0.551645
	-0.553900
	-0.554544
	-0.552289
	-0.553577
	-0.553577
	-0.556154
	-0.551967
	-0.552933
	-0.555510
	-0.554222
	-0.551000
	-0.551967
	-0.557443
	-0.552611
	-0.554544
	-0.556154
	-0.556477
	-0.553255
	-0.554544
	-0.556799
	-0.553577
	-0.552611
	-0.553577
	-0.557443
	-0.553900
	-0.554544
	-0.554544
	-0.558087
	-0.553577
	-0.552933
	-0.555832
	-0.557121
	-0.554544
	-0.552289
	-0.557443
	-0.558087
	-0.554544
	-0.554866
	-0.556799
	-0.556799
	-0.552933
	-0.555188
	-0.556154
	-0.558087
	-0.555188
	-0.556477
	-0.560342
	-0.556477
	-0.554222
	-0.555188
	-0.560020
	-0.553900
	-0.556799
	-0.558087
	-0.557443
	-0.554222
	-0.555188
	-0.559376
	-0.557765
	-0.556477
	-0.557443
	-0.561631
	-0.555510
	-0.557121
	-0.558731
	-0.559054
	-0.555832
	-0.557765
	-0.561631
	-0.557443
	-0.558087
	-0.559054
	-0.560342
	-0.555510
	-0.556799
	-0.560020
	-0.560664
	-0.558409
	-0.559054
	-0.562597
	-0.559698
	-0.558731
	-0.557443
	-0.561631
	-0.559054
	-0.556799
	-0.558731
	-0.562275
	-0.558409
	-0.557443
	-0.563885
	-0.559698
	-0.558731
	-0.559054
	-0.561953
	-0.559054
	-0.556799
	-0.559698
	-0.561631
	-0.560020
	-0.558087
	-0.559698
	-0.561631
	-0.560020
	-0.559054
	-0.560986
	-0.563241
	-0.557121
	-0.559698
	-0.563241
	-0.562275
	-0.558731
	-0.560986
	-0.564208
	-0.559698
	-0.559698
	-0.560342
	-0.563563
	-0.558731
	-0.560664
	-0.563885
	-0.563885
	-0.561308
	-0.560020
	-0.565174
	-0.560020
	-0.558731
	-0.561308
	-0.563563
	-0.561308
	-0.561308
	-0.565496
	-0.560342
	-0.560342
	-0.563241
	-0.565174
	-0.560342
	-0.562919
	-0.564530
	-0.563241
	-0.562275
	-0.562597
	-0.566140
	-0.561631
	-0.562275
	-0.565174
	-0.566462
	-0.561308
	-0.561308
	-0.565174
	-0.562275
	-0.562919
	-0.562275
	-0.568073
	-0.562919
	-0.562275
	-0.566140
	-0.565496
	-0.562597
	-0.560986
	-0.566785
	-0.562597
	-0.563563
	-0.564208
	-0.566785
	-0.562275
	-0.561308
	-0.565174
	-0.562275
	-0.562597
	-0.562919
	-0.566462
	-0.562919
	-0.564530
	-0.568073
	-0.565174
	-0.564208
	-0.564530
	-0.568073
	-0.563563
	-0.564208
	-0.565174
	-0.566140
	-0.561953
	-0.564208
	-0.569039
	-0.564852
	-0.563563
	-0.565496
	-0.567751
	-0.563563
	-0.565174
	-0.567107
	-0.568073
	-0.563241
	-0.566140
	-0.568717
	-0.567107
	-0.566462
	-0.568073
	-0.569039
	-0.563563
	-0.564208
	-0.568073
	-0.568073
	-0.563563
	-0.565818
	-0.569039
	-0.565818
	-0.564852
	-0.566462
	-0.569684
	-0.565174
	-0.566785
	-0.567751
	-0.569684
	-0.567107
	-0.568073
	-0.570006
	-0.568717
	-0.566140
	-0.565496
	-0.570650
	-0.565496
	-0.565496
	-0.566462
	-0.569684
	-0.566140
	-0.564530
	-0.569039
	-0.567429
	-0.566462
	-0.566462
	-0.571294
	-0.568395
	-0.567429
	-0.567751
	-0.570328
	-0.567429
	-0.564852
	-0.570328
	-0.570006
	-0.567107
	-0.567107
	-0.571616
	-0.570328
	-0.565818
	-0.568395
	-0.570006
	-0.568395
	-0.567107
	-0.570650
	-0.571616
	-0.567429
	-0.568073
	-0.571294
	-0.570328
	-0.569362
	-0.570972
	-0.571939
	-0.569684
	-0.567429
	-0.568717
	-0.572905
	-0.566462
	-0.569362
	-0.571616
	-0.570328
	-0.567107
	-0.569684
	-0.571616
	-0.568073
	-0.570006
	-0.570006
	-0.572583
	-0.567429
	-0.568717
	-0.570972
	-0.573549
	-0.570006
	-0.570006
	-0.572583
	-0.572583
	-0.570006
	-0.568717
	-0.574838
	-0.569362
	-0.568395
	-0.570328
	-0.574516
	-0.570006
	-0.570650
	-0.572261
	-0.573227
	-0.571616
	-0.569362
	-0.573549
	-0.574193
	-0.570650
	-0.569039
	-0.573871
	-0.572905
	-0.568717
	-0.571939
	-0.573871
	-0.571294
	-0.568717
	-0.573549
	-0.574516
	-0.571294
	-0.572583
	-0.573227
	-0.574838
	-0.570650
	-0.571939
	-0.574193
	-0.573549
	-0.570328
	-0.571616
	-0.576771
	-0.569684
	-0.570972
	-0.572261
	-0.573871
	-0.569362
	-0.572261
	-0.574193
	-0.570650
	-0.570006
	-0.572905
	-0.574838
	-0.571939
	-0.574193
	-0.574516
	-0.575804
	-0.572261
	-0.572583
	-0.575804
	-0.575482
	-0.571616
	-0.572583
	-0.577415
	-0.571294
	-0.571616
	-0.573227
	-0.577415
	-0.571294
	-0.572261
	-0.573549
	-0.574516
	-0.572905
	-0.570972
	-0.575804
	-0.577415
	-0.573227
	-0.573871
	-0.575160
	-0.577415
	-0.572583
	-0.573549
	-0.576771
	-0.574193
	-0.572905
	-0.572905
	-0.578059
	-0.574193
	-0.574193
	-0.574838
	-0.576448
	-0.573227
	-0.572583
	-0.574838
	-0.576771
	-0.574516
	-0.573227
	-0.578703
	-0.573227
	-0.573871
	-0.576448
	-0.578059
	-0.574516
	-0.573549
	-0.577737
	-0.576126
	-0.574838
	-0.574193
	-0.577737
	-0.575804
	-0.574193
	-0.574838
	-0.578059
	-0.575160
	-0.572583
	-0.578381
	-0.579348
	-0.576771
	-0.575160
	-0.579348
	-0.578059
	-0.574193
	-0.575160
	-0.578703
	-0.576771
	-0.573871
	-0.577415
	-0.578381
	-0.576771
	-0.574516
	-0.576771
	-0.579670
	-0.576448
	-0.575160
	-0.577415
	-0.579348
	-0.573871
	-0.577737
	-0.580314
	-0.579670
	-0.577093
	-0.578059
	-0.581602
	-0.576448
	-0.577415
	-0.578059
	-0.580314
	-0.575804
	-0.577737
	-0.578703
	-0.579025
	-0.575804
	-0.576771
	-0.582247
	-0.578703
	-0.577737
	-0.577093
	-0.580636
	-0.575804
	-0.577737
	-0.580314
	-0.579348
	-0.576448
	-0.578059
	-0.580314
	-0.576448
	-0.577093
	-0.578059
	-0.580314
	-0.576448
	-0.577737
	-0.580314
	-0.579348
	-0.577415
	-0.579348
	-0.581602
	-0.577415
	-0.578381
	-0.581602
	-0.579992
	-0.577737
	-0.581602
	-0.580314
	-0.577415
	-0.579025
	-0.581602
	-0.579025
	-0.577737
	-0.580636
	-0.579670
	-0.578703
	-0.578059
	-0.581925
	-0.579348
	-0.578703
	-0.579670
	-0.580636
	-0.578703
	-0.578059
	-0.581602
	-0.581925
	-0.580314
	-0.577415
	-0.582891
	-0.579348
	-0.578381
	-0.579348
	-0.582247
	-0.579025
	-0.577093
	-0.580636
	-0.581602
	-0.579670
	-0.578703
	-0.582247
	-0.582247
	-0.579992
	-0.579992
	-0.582891
	-0.582247
	-0.578381
	-0.580958
	-0.584502
	-0.580636
	-0.580314
	-0.583535
	-0.583213
	-0.579348
	-0.580314
	-0.581925
	-0.582569
	-0.579025
	-0.581280
	-0.583213
	-0.581925
	-0.579670
	-0.581280
	-0.584502
	-0.581280
	-0.580958
	-0.582891
	-0.582891
	-0.578381
	-0.579992
	-0.583857
	-0.581925
	-0.580636
	-0.583535
	-0.584502
	-0.580636
	-0.580636
	-0.582569
	-0.584502
	-0.580636
	-0.582247
	-0.582569
	-0.586112
	-0.580958
	-0.581602
	-0.583535
	-0.583857
	-0.579670
	-0.580314
	-0.585146
	-0.583535
	-0.582569
	-0.581602
	-0.585146
	-0.581280
	-0.580314
	-0.582247
	-0.584179
	-0.582569
	-0.580314
	-0.584502
	-0.584179
	-0.581280
	-0.579992
	-0.585790
	-0.584179
	-0.581602
	-0.583535
	-0.584824
	-0.581925
	-0.579992
	-0.584502
	-0.584502
	-0.582891
	-0.581602
	-0.584824
	-0.584179
	-0.581602
	-0.582891
	-0.585468
	-0.582891
	-0.581602
	-0.585468
	-0.584179
	-0.583535
	-0.582569
	-0.587723
	-0.583535
	-0.581602
	-0.585468
	-0.586112
	-0.582569
	-0.582891
	-0.587079
	-0.583857
	-0.583213
	-0.581925
	-0.587079
	-0.583857
	-0.583213
	-0.582247
	-0.588689
	-0.584824
	-0.584179
	-0.584824
	-0.587401
	-0.583535
	-0.582247
	-0.585790
	-0.585468
	-0.582247
	-0.582247
	-0.585468
	-0.584502
	-0.583213
	-0.582247
	-0.587723
	-0.585790
	-0.582247
	-0.584502
	-0.587401
	-0.583535
	-0.581925
	-0.586434
	-0.586756
	-0.584824
	-0.583857
	-0.587723
	-0.585146
	-0.583535
	-0.585146
	-0.587079
	-0.585468
	-0.582247
	-0.585468
	-0.586112
	-0.585146
	-0.583213
	-0.585790
	-0.588367
	-0.584502
	-0.585146
	-0.588045
	-0.586756
	-0.583213
	-0.587079
	-0.588689
	-0.587079
	-0.585146
	-0.587079
	-0.589011
	-0.585468
	-0.585790
	-0.586756
	-0.589656
	-0.583857
	-0.585468
	-0.587401
	-0.587401
	-0.583535
	-0.585790
	-0.589011
	-0.587401
	-0.584824
	-0.586112
	-0.589978
	-0.584824
	-0.585790
	-0.586756
	-0.589656
	-0.584824
	-0.585790
	-0.588367
	-0.588689
	-0.584502
	-0.584179
	-0.589011
	-0.585468
	-0.585468
	-0.587079
	-0.591910
	-0.585790
	-0.585790
	-0.588367
	-0.588367
	-0.585468
	-0.585790
	-0.588689
	-0.588689
	-0.585790
	-0.585146
	-0.589978
	-0.587401
	-0.586112
	-0.585146
	-0.589333
	-0.583857
	-0.582891
	-0.588689
	-0.588689
	-0.588045
	-0.587079
	-0.590622
	-0.589333
	-0.586756
	-0.587401
	-0.589978
	-0.588689
	-0.584502
	-0.587079
	-0.589656
	-0.588689
	-0.585468
	-0.587723
	-0.589978
	-0.586756
	-0.586112
	-0.587723
	-0.589978
	-0.585468
	-0.587401
	-0.589011
	-0.589011
	-0.585790
	-0.586434
	-0.590944
	-0.587079
	-0.587723
	-0.586756
	-0.590944
	-0.586434
	-0.586756
	-0.589011
	-0.589333
	-0.585146
	-0.585790
	-0.590622
	-0.587079
	-0.586112
	-0.586756
	-0.589333
	-0.588689
	-0.584824
	-0.587079
	-0.589333
	-0.589011
	-0.586756
	-0.588689
	-0.589978
	-0.587401
	-0.586434
	-0.588689
	-0.590622
	-0.585468
	-0.587401
	-0.589656
	-0.589333
	-0.587723
	-0.588367
	-0.591266
	-0.586434
	-0.586756
	-0.587401
	-0.591266
	-0.585468
	-0.587723
	-0.589656
	-0.590944
	-0.587723
	-0.587079
	-0.591588
	-0.588367
	-0.586756
	-0.587079
	-0.590622
	-0.587401
	-0.587401
	-0.587079
	-0.589656
	-0.589656
	-0.586756
	-0.587079
	-0.590300
	-0.590300
	-0.587079
	-0.589333
	-0.590300
	-0.589333
	-0.589333
	-0.589011
	-0.592233
	-0.587079
	-0.588045
	-0.590622
	-0.590622
	-0.587401
	-0.588689
	-0.591910
	-0.589011
	-0.588367
	-0.589978
	-0.593199
	-0.587079
	-0.588689
	-0.589978
	-0.593199
	-0.588367
	-0.589656
	-0.589978
	-0.590300
	-0.589333
	-0.587079
	-0.591910
	-0.589333
	-0.588367
	-0.588689
	-0.594165
	-0.587723
	-0.589333
	-0.591588
	-0.590944
	-0.587723
	-0.587723
	-0.592555
	-0.588045
	-0.589656
	-0.590622
	-0.592877
	-0.588045
	-0.589656
	-0.589978
	-0.592233
	-0.588045
	-0.588689
	-0.591910
	-0.591588
	-0.588045
	-0.589011
	-0.594487
	-0.589011
	-0.589978
	-0.591266
	-0.594487
	-0.587723
	-0.590622
	-0.592233
	-0.592555
	-0.588367
	-0.590622
	-0.592555
	-0.590622
	-0.589656
	-0.589333
	-0.593199
	-0.589978
	-0.589011
	-0.588045
	-0.594810
	-0.592877
	-0.589333
	-0.589656
	-0.592233
	-0.590300
	-0.589011
	-0.591266
	-0.591910
	-0.590300
	-0.588367
	-0.592877
	-0.590622
	-0.589011
	-0.589333
	-0.595132
	-0.589978
	-0.588367
	-0.589656
	-0.592555
	-0.589978
	-0.590622
	-0.594165
	-0.589978
	-0.589011
	-0.589333
	-0.594487
	-0.590300
	-0.590622
	-0.591266
	-0.592877
	-0.591266
	-0.589333
	-0.593843
	-0.591266
	-0.589333
	-0.588367
	-0.593199
	-0.589333
	-0.588689
	-0.591588
	-0.592877
	-0.589978
	-0.589011
	-0.593521
	-0.591910
	-0.590622
	-0.589978
	-0.593521
	-0.591910
	-0.589656
	-0.589978
	-0.591910
	-0.594487
	-0.589656
	-0.589978
	-0.594165
	-0.594487
	-0.588689
	-0.590300
	-0.591588
	-0.590300
	-0.590622
	-0.589656
	-0.592555
	-0.591910
	-0.589978
	-0.590300
	-0.595132
	-0.596098
	-0.589656
	-0.589978
	-0.591266
	-0.593199
	-0.588367
	-0.591266
	-0.591588
	-0.591588
	-0.589656
	-0.589978
	-0.593199
	-0.592555
	-0.590300
	-0.589978
	-0.595132
	-0.592233
	-0.589333
	-0.589656
	-0.592877
	-0.589333
	-0.588689
	-0.590300
	-0.591910
	-0.591266
	-0.590300
	-0.594810
	-0.592877
	-0.590300
	-0.589011
	-0.592877
	-0.590944
	-0.588045
	-0.590622
	-0.593199
	-0.589978
	-0.589011
	-0.593521
	-0.593843
	-0.592233
	-0.591266
	-0.594165
	-0.592555
	-0.590944
	-0.590300
	-0.593199
	-0.592555
	-0.590622
	-0.592555
	-0.593199
	-0.591910
	-0.590622
	-0.592555
	-0.593843
	-0.589333
	-0.589978
	-0.593199
	-0.592877
	-0.589656
	-0.593521
	-0.593843
	-0.592233
	-0.589978
	-0.590622
	-0.593199
	-0.591266
	-0.588689
	-0.588689
	-0.595776
	-0.589656
	-0.589011
	-0.589978
	-0.594487
	-0.590944
	-0.590944
	-0.592233
	-0.593199
	-0.589978
	-0.589656
	-0.593521
	-0.594810
	-0.591588
	-0.590622
	-0.593521
	-0.593843
	-0.589333
	-0.588367
	-0.591266
	-0.593199
	-0.587723
	-0.590300
	-0.591588
	-0.593843
	-0.589656
	-0.590622
	-0.592233
	-0.592877
	-0.589978
	-0.590622
	-0.594487
	-0.592233
	-0.590300
	-0.590622
	-0.593843
	-0.589978
	-0.590622
	-0.592555
	-0.594165
	-0.588045
	-0.589978
	-0.593521
	-0.593843
	-0.591588
	-0.591588
	-0.595454
	-0.592233
	-0.589978
	-0.590300
	-0.596098
	-0.590300
	-0.589333
	-0.590944
	-0.594165
	-0.590944
	-0.590300
	-0.592555
	-0.594165
	-0.590944
	-0.589011
	-0.593521
	-0.590944
	-0.590944
	-0.590300
	-0.595454
	-0.590622
	-0.590622
	-0.591588
	-0.596098
	-0.591266
	-0.591910
	-0.594487
	-0.593843
	-0.590622
	-0.590622
	-0.596098
	-0.592233
	-0.591588
	-0.590300
	-0.594487
	-0.589011
	-0.589978
	-0.590622
	-0.594487
	-0.590944
	-0.589656
	-0.591910
	-0.594165
	-0.591910
	-0.590300
	-0.595132
	-0.592555
	-0.589978
	-0.590944
	-0.594487
	-0.593199
	-0.590944
	-0.591910
	-0.591266
	-0.595132
	-0.589656
	-0.589978
	-0.590622
	-0.596098
	-0.590300
	-0.590944
	-0.591266
	-0.593521
	-0.591588
	-0.590944
	-0.593843
	-0.595132
	-0.591588
	-0.589333
	-0.592233
	-0.594487
	-0.591910
	-0.590300
	-0.592233
	-0.593521
	-0.589333
	-0.590300
	-0.591588
	-0.594810
	-0.589978
	-0.591910
	-0.593843
	-0.594487
	-0.591588
	-0.589978
	-0.593843
	-0.592555
	-0.589978
	-0.589333
	-0.594165
	-0.592877
	-0.589978
	-0.590944
	-0.593199
	-0.592877
	-0.589333
	-0.590622
	-0.593199
	-0.592555
	-0.589656
	-0.590622
	-0.593843
	-0.593521
	-0.591266
	-0.590622
	-0.596420
	-0.591588
	-0.590300
	-0.590944
	-0.593199
	-0.589656
	-0.589656
	-0.590944
	-0.591910
	-0.592233
	-0.588367
	-0.591910
	-0.594165
	-0.592233
	-0.588689
	-0.591266
	-0.593199
	-0.589333
	-0.589978
	-0.591266
	-0.595132
	-0.590300
	-0.590300
	-0.589333
	-0.592877
	-0.588045
	-0.587723
	-0.592555
	-0.591910
	-0.589978
	-0.588045
	-0.593199
	-0.590622
	-0.588689
	-0.590622
	-0.592555
	-0.589333
	-0.587401
	-0.590944
	-0.592233
	-0.590300
	-0.588367
	-0.591910
	-0.592877
	-0.589978
	-0.588689
	-0.593843
	-0.591266
	-0.587723
	-0.587723
	-0.591910
	-0.589978
	-0.587079
	-0.591588
	-0.591910
	-0.589978
	-0.588367
	-0.589333
	-0.591588
	-0.590300
	-0.589333
	-0.591266
	-0.593843
	-0.589011
	-0.587723
	-0.590622
	-0.591910
	-0.587723
	-0.589978
	-0.591266
	-0.590300
	-0.585790
	-0.589978
	-0.590622
	-0.589333
	-0.588045
	-0.590300
	-0.591910
	-0.588689
	-0.587723
	-0.589333
	-0.593843
	-0.588689
	-0.589011
	-0.591266
	-0.592233
	-0.586756
	-0.589011
	-0.590622
	-0.591910
	-0.588367
	-0.588045
	-0.589978
	-0.591266
	-0.588045
	-0.586756
	-0.591266
	-0.590944
	-0.588367
	-0.588045
	-0.591266
	-0.589978
	-0.586112
	-0.588367
	-0.590300
	-0.589656
	-0.586112
	-0.588045
	-0.589333
	-0.589011
	-0.585146
	-0.586434
	-0.590944
	-0.589333
	-0.586434
	-0.588045
	-0.591910
	-0.587401
	-0.587079
	-0.589011
	-0.592555
	-0.588045
	-0.587723
	-0.587079
	-0.591266
	-0.588045
	-0.587079
	-0.589011
	-0.589978
	-0.589333
	-0.584824
	-0.588367
	-0.589656
	-0.588689
	-0.587079
	-0.589978
	-0.591588
	-0.587079
	-0.587723
	-0.588689
	-0.592555
	-0.586434
	-0.587079
	-0.588045
	-0.589978
	-0.586434
	-0.587723
	-0.589656
	-0.589011
	-0.585790
	-0.586756
	-0.590300
	-0.588045
	-0.587401
	-0.587401
	-0.591588
	-0.587723
	-0.588045
	-0.587723
	-0.591588
	-0.588367
	-0.586756
	-0.587079
	-0.589978
	-0.587079
	-0.586112
	-0.588367
	-0.589011
	-0.588367
	-0.584824
	-0.585790
	-0.588367
	-0.586112
	-0.585146
	-0.588045
	-0.589978
	-0.587079
	-0.586756
	-0.588367
	-0.589656
	-0.586434
	-0.587079
	-0.586434
	-0.589978
	-0.584179
	-0.584179
	-0.586112
	-0.589011
	-0.584824
	-0.584824
	-0.588367
	-0.587401
	-0.584502
	-0.583857
	-0.588367
	-0.586434
	-0.585146
	-0.585146
	-0.589333
	-0.588689
	-0.584179
	-0.583857
	-0.586756
	-0.587723
	-0.582569
	-0.585468
	-0.588367
	-0.586434
	-0.583535
	-0.585146
	-0.588689
	-0.583535
	-0.584824
	-0.586756
	-0.589011
	-0.584824
	-0.584179
	-0.586112
	-0.587401
	-0.584502
	-0.586112
	-0.588367
	-0.587079
	-0.584824
	-0.584502
	-0.588689
	-0.583535
	-0.584179
	-0.584179
	-0.589656
	-0.584824
	-0.584824
	-0.584824
	-0.588045
	-0.586434
	-0.584179
	-0.586756
	-0.588045
	-0.585146
	-0.582891
	-0.588045
	-0.587079
	-0.583535
	-0.585468
	-0.587401
	-0.586756
	-0.583535
	-0.585790
	-0.585468
	-0.584502
	-0.581280
	-0.584179
	-0.587723
	-0.584502
	-0.584179
	-0.584179
	-0.587723
	-0.580636
	-0.582891
	-0.585790
	-0.586112
	-0.582247
	-0.584502
	-0.587723
	-0.582891
	-0.583857
	-0.583857
	-0.588045
	-0.583213
	-0.582891
	-0.582891
	-0.587401
	-0.585146
	-0.581602
	-0.584824
	-0.587079
	-0.585790
	-0.582247
	-0.585146
