LabVIEW Measurement	
Writer_Version	2
Reader_Version	2
Separator	Tab
Decimal_Separator	.
Multi_Headings	No
X_Columns	No
Time_Pref	Absolute
Operator	orzr
Date	2022/04/28
Time	12:56:32.579708749942634653
***End_of_Header***	
	
Channels	1	
Samples	10000	
Date	2022/04/28	
Time	12:56:32.579708749942634653	
Y_Unit_Label	Volts	
X_Dimension	Time	
X0	0.0000000000000000E+0	
Delta_X	0.001000	
***End_of_Header***		
X_Value	Voltage	Comment
	1.801829
	1.775414
	1.751255
	1.726128
	1.699069
	1.671044
	1.644951
	1.617570
	1.587612
	1.559909
	1.533494
	1.507401
	1.480664
	1.453928
	1.428157
	1.399487
	1.371784
	1.344403
	1.316056
	1.286420
	1.257428
	1.232302
	1.206209
	1.180117
	1.152414
	1.125033
	1.096363
	1.066083
	1.038057
	1.010032
	0.979752
	0.950438
	0.922413
	0.896965
	0.870228
	0.841881
	0.814822
	0.786152
	0.755872
	0.725592
	0.696600
	0.667931
	0.640228
	0.613813
	0.588365
	0.558407
	0.528449
	0.500102
	0.471432
	0.439864
	0.409906
	0.382203
	0.355144
	0.325508
	0.297805
	0.270102
	0.241111
	0.211153
	0.181517
	0.152526
	0.120635
	0.093254
	0.067806
	0.040103
	0.011112
	-0.018524
	-0.045905
	-0.074574
	-0.106465
	-0.135779
	-0.165736
	-0.194084
	-0.222431
	-0.250456
	-0.277192
	-0.306828
	-0.336786
	-0.364167
	-0.394125
	-0.425371
	-0.454362
	-0.481743
	-0.510412
	-0.536827
	-0.563563
	-0.592877
	-0.621868
	-0.650538
	-0.679529
	-0.709487
	-0.740733
	-0.768114
	-0.795172
	-0.823842
	-0.850900
	-0.877637
	-0.904695
	-0.934975
	-0.963644
	-0.991669
	-1.020661
	-1.050941
	-1.079288
	-1.106991
	-1.132439
	-1.160786
	-1.186878
	-1.212970
	-1.241639
	-1.269664
	-1.298333
	-1.327003
	-1.355672
	-1.384985
	-1.411400
	-1.438780
	-1.464228
	-1.490320
	-1.518023
	-1.542505
	-1.570852
	-1.598877
	-1.627868
	-1.654605
	-1.681663
	-1.709366
	-1.733525
	-1.757363
	-1.786998
	-1.812768
	-1.837894
	-1.866241
	-1.896199
	-1.922613
	-1.946772
	-1.970288
	-1.995735
	-2.021506
	-2.046309
	-2.071757
	-2.098494
	-2.125552
	-2.151966
	-2.178059
	-2.202218
	-2.227988
	-2.251503
	-2.275663
	-2.300144
	-2.325592
	-2.351362
	-2.375844
	-2.402258
	-2.429638
	-2.453798
	-2.476024
	-2.497607
	-2.522088
	-2.545926
	-2.569763
	-2.592634
	-2.617438
	-2.642241
	-2.667045
	-2.689594
	-2.713431
	-2.735980
	-2.756274
	-2.779789
	-2.802982
	-2.826497
	-2.848079
	-2.871917
	-2.896398
	-2.920558
	-2.940207
	-2.960823
	-2.983372
	-3.004310
	-3.025248
	-3.046509
	-3.068735
	-3.088707
	-3.112222
	-3.132516
	-3.155065
	-3.176647
	-3.195008
	-3.214336
	-3.234952
	-3.257179
	-3.276828
	-3.297122
	-3.319993
	-3.339643
	-3.358326
	-3.375077
	-3.395048
	-3.413732
	-3.433703
	-3.451420
	-3.471392
	-3.491686
	-3.510369
	-3.527764
	-3.547092
	-3.564486
	-3.580271
	-3.599276
	-3.617959
	-3.634710
	-3.651783
	-3.668855
	-3.689793
	-3.707832
	-3.724583
	-3.740689
	-3.755829
	-3.771935
	-3.786753
	-3.802215
	-3.819610
	-3.834106
	-3.848924
	-3.865674
	-3.884357
	-3.900464
	-3.913027
	-3.928167
	-3.941696
	-3.955869
	-3.969399
	-3.985505
	-4.000001
	-4.013208
	-4.028348
	-4.044132
	-4.056373
	-4.067647
	-4.081176
	-4.095028
	-4.107269
	-4.117899
	-4.131428
	-4.145602
	-4.157842
	-4.169117
	-4.179747
	-4.191988
	-4.201652
	-4.213892
	-4.225811
	-4.237730
	-4.249326
	-4.261567
	-4.269942
	-4.278962
	-4.288948
	-4.299900
	-4.308275
	-4.320194
	-4.330502
	-4.339844
	-4.350796
	-4.359171
	-4.365936
	-4.372701
	-4.382042
	-4.390418
	-4.397826
	-4.405880
	-4.414899
	-4.423274
	-4.433260
	-4.440991
	-4.444857
	-4.451299
	-4.457098
	-4.463540
	-4.470627
	-4.477070
	-4.483512
	-4.489955
	-4.497041
	-4.501551
	-4.505095
	-4.511215
	-4.514114
	-4.518302
	-4.524422
	-4.527966
	-4.532153
	-4.536985
	-4.543428
	-4.547293
	-4.549548
	-4.552125
	-4.553736
	-4.555669
	-4.559534
	-4.561145
	-4.564366
	-4.567587
	-4.569842
	-4.572741
	-4.575640
	-4.577573
	-4.576929
	-4.578539
	-4.578862
	-4.579184
	-4.579184
	-4.579828
	-4.580794
	-4.581761
	-4.582405
	-4.582405
	-4.583049
	-4.582083
	-4.577573
	-4.577895
	-4.574674
	-4.573063
	-4.572419
	-4.569198
	-4.567587
	-4.568876
	-4.566943
	-4.564366
	-4.561467
	-4.556635
	-4.553091
	-4.550837
	-4.547615
	-4.543750
	-4.539884
	-4.535697
	-4.532153
	-4.530221
	-4.525389
	-4.518624
	-4.514436
	-4.507994
	-4.501873
	-4.498330
	-4.492854
	-4.485445
	-4.481902
	-4.477392
	-4.471916
	-4.464829
	-4.457742
	-4.449367
	-4.443246
	-4.435193
	-4.426496
	-4.420697
	-4.413289
	-4.405558
	-4.400081
	-4.392995
	-4.383975
	-4.371412
	-4.363681
	-4.353373
	-4.343387
	-4.336300
	-4.326637
	-4.319872
	-4.311174
	-4.300544
	-4.288948
	-4.278318
	-4.268654
	-4.257057
	-4.245461
	-4.235797
	-4.223556
	-4.212282
	-4.204229
	-4.192954
	-4.181680
	-4.169117
	-4.154299
	-4.141736
	-4.129173
	-4.117899
	-4.104047
	-4.091807
	-4.079888
	-4.066359
	-4.054440
	-4.042199
	-4.029314
	-4.012241
	-3.997746
	-3.984861
	-3.969399
	-3.953292
	-3.941052
	-3.926878
	-3.911738
	-3.898209
	-3.882425
	-3.864708
	-3.849568
	-3.835072
	-3.817033
	-3.801893
	-3.786431
	-3.770969
	-3.755829
	-3.741011
	-3.724583
	-3.705578
	-3.686894
	-3.669822
	-3.652749
	-3.634388
	-3.619248
	-3.602497
	-3.585425
	-3.565775
	-3.548058
	-3.527442
	-3.507148
	-3.490075
	-3.471392
	-3.452065
	-3.434026
	-3.415987
	-3.397948
	-3.377976
	-3.360581
	-3.340287
	-3.317416
	-3.297122
	-3.277150
	-3.257501
	-3.237529
	-3.215947
	-3.197585
	-3.177614
	-3.156353
	-3.135737
	-3.113511
	-3.091284
	-3.068091
	-3.048763
	-3.027503
	-3.005921
	-2.984338
	-2.965333
	-2.943751
	-2.920558
	-2.895432
	-2.872561
	-2.849690
	-2.826819
	-2.805237
	-2.783010
	-2.761105
	-2.738235
	-2.715686
	-2.692171
	-2.668011
	-2.642563
	-2.617438
	-2.595211
	-2.571051
	-2.546570
	-2.524021
	-2.502761
	-2.479246
	-2.455086
	-2.429638
	-2.404191
	-2.378098
	-2.351684
	-2.329135
	-2.304976
	-2.278240
	-2.251825
	-2.228632
	-2.206083
	-2.179669
	-2.154865
	-2.128773
	-2.102037
	-2.075623
	-2.049853
	-2.025371
	-1.999923
	-1.972542
	-1.949672
	-1.923902
	-1.897809
	-1.870107
	-1.842082
	-1.816634
	-1.789897
	-1.762517
	-1.736102
	-1.708399
	-1.681985
	-1.656537
	-1.631089
	-1.604997
	-1.577616
	-1.550558
	-1.520922
	-1.491931
	-1.467127
	-1.438458
	-1.410433
	-1.383697
	-1.357282
	-1.330546
	-1.302199
	-1.276429
	-1.250014
	-1.219413
	-1.190099
	-1.162396
	-1.133405
	-1.104736
	-1.076711
	-1.050296
	-1.023238
	-0.995213
	-0.968476
	-0.941418
	-0.911460
	-0.882469
	-0.853799
	-0.825452
	-0.795817
	-0.766825
	-0.739122
	-0.710775
	-0.684039
	-0.656658
	-0.628955
	-0.597709
	-0.568395
	-0.539726
	-0.510090
	-0.481099
	-0.453074
	-0.426659
	-0.397346
	-0.370609
	-0.342584
	-0.311338
	-0.281058
	-0.252067
	-0.221787
	-0.193762
	-0.165092
	-0.137711
	-0.110008
	-0.081017
	-0.052992
	-0.023034
	0.008857
	0.037848
	0.066195
	0.095187
	0.123856
	0.150271
	0.177329
	0.207609
	0.234346
	0.262693
	0.293618
	0.324542
	0.352567
	0.381881
	0.411517
	0.439220
	0.466601
	0.495592
	0.523617
	0.550032
	0.580312
	0.610592
	0.639584
	0.667609
	0.696278
	0.725914
	0.752973
	0.780676
	0.808379
	0.835438
	0.862497
	0.893743
	0.924024
	0.952049
	0.980718
	1.009066
	1.035480
	1.062861
	1.091531
	1.118590
	1.145649
	1.173996
	1.204599
	1.231658
	1.258394
	1.288352
	1.315411
	1.341826
	1.368241
	1.394011
	1.420748
	1.448451
	1.477765
	1.508046
	1.534460
	1.561841
	1.589545
	1.615959
	1.642052
	1.667178
	1.695204
	1.718719
	1.747389
	1.776381
	1.801507
	1.827600
	1.854015
	1.881396
	1.906844
	1.930038
	1.956130
	1.982867
	2.007994
	2.035697
	2.063078
	2.089171
	2.114620
	2.139102
	2.166161
	2.188710
	2.212548
	2.237997
	2.263445
	2.288571
	2.314342
	2.340757
	2.364917
	2.388433
	2.414526
	2.437075
	2.459624
	2.484751
	2.509555
	2.533393
	2.557231
	2.582035
	2.606840
	2.629067
	2.653227
	2.676743
	2.698326
	2.719264
	2.743425
	2.767907
	2.790456
	2.813972
	2.837488
	2.861326
	2.882265
	2.902559
	2.924787
	2.946047
	2.966986
	2.991469
	3.014018
	3.036568
	3.057184
	3.079412
	3.103250
	3.121934
	3.142550
	3.163811
	3.181851
	3.202146
	3.220829
	3.243379
	3.263674
	3.284290
	3.305874
	3.326490
	3.343886
	3.365469
	3.384153
	3.402192
	3.420232
	3.439238
	3.458889
	3.477573
	3.497867
	3.518162
	3.535557
	3.552953
	3.570670
	3.590643
	3.606750
	3.622857
	3.641541
	3.656681
	3.674077
	3.693083
	3.709834
	3.728196
	3.745269
	3.762021
	3.778127
	3.793268
	3.810663
	3.825160
	3.838690
	3.853186
	3.869937
	3.883789
	3.899252
	3.917936
	3.933076
	3.947250
	3.963035
	3.977532
	3.989451
	4.002014
	4.015222
	4.028752
	4.040993
	4.055489
	4.070630
	4.084160
	4.097368
	4.110253
	4.124749
	4.135380
	4.146333
	4.159541
	4.170171
	4.178869
	4.194332
	4.206895
	4.219459
	4.230412
	4.242009
	4.251673
	4.259726
	4.270679
	4.280988
	4.289041
	4.301283
	4.312880
	4.322222
	4.332852
	4.342839
	4.352181
	4.359268
	4.367321
	4.376986
	4.382140
	4.389871
	4.399213
	4.407911
	4.416609
	4.424985
	4.433683
	4.439159
	4.446246
	4.453655
	4.460098
	4.463964
	4.469440
	4.476850
	4.481360
	4.489091
	4.498433
	4.502299
	4.507775
	4.512929
	4.517117
	4.522272
	4.524849
	4.529037
	4.530969
	4.533547
	4.538701
	4.543855
	4.546432
	4.552553
	4.555774
	4.557385
	4.561251
	4.564472
	4.564794
	4.565439
	4.567694
	4.570593
	4.569949
	4.573492
	4.576391
	4.577680
	4.579291
	4.579291
	4.579935
	4.578324
	4.577036
	4.578324
	4.576714
	4.576714
	4.579291
	4.579935
	4.578324
	4.577036
	4.576714
	4.574459
	4.570271
	4.568660
	4.566405
	4.563184
	4.562217
	4.561251
	4.560606
	4.556096
	4.554808
	4.550942
	4.545144
	4.540634
	4.536446
	4.532902
	4.528392
	4.525815
	4.522916
	4.516473
	4.511963
	4.508419
	4.503265
	4.496822
	4.489735
	4.483937
	4.477816
	4.471695
	4.468152
	4.462997
	4.454944
	4.448823
	4.442380
	4.434005
	4.425951
	4.418220
	4.411133
	4.401468
	4.394381
	4.388905
	4.380851
	4.372476
	4.364422
	4.356046
	4.345738
	4.336718
	4.327054
	4.314168
	4.305792
	4.296450
	4.288719
	4.278088
	4.266813
	4.258438
	4.248129
	4.236854
	4.226546
	4.215915
	4.203030
	4.190788
	4.178547
	4.165017
	4.152454
	4.143434
	4.131514
	4.118629
	4.108642
	4.095435
	4.081261
	4.068375
	4.054201
	4.040027
	4.024242
	4.012323
	4.001048
	3.985907
	3.972699
	3.959814
	3.943385
	3.929211
	3.913748
	3.897641
	3.880568
	3.865427
	3.851575
	3.834502
	3.819039
	3.805831
	3.789080
	3.772973
	3.757188
	3.740759
	3.722720
	3.704358
	3.689217
	3.669889
	3.654104
	3.637997
	3.621568
	3.604173
	3.585489
	3.569060
	3.551020
	3.531692
	3.512686
	3.491747
	3.472741
	3.456312
	3.440205
	3.420232
	3.402515
	3.384797
	3.363214
	3.342275
	3.323269
	3.301364
	3.280425
	3.262385
	3.243701
	3.222762
	3.202790
	3.183462
	3.162845
	3.140295
	3.118712
	3.097773
	3.073613
	3.053319
	3.033024
	3.014340
	2.992435
	2.969886
	2.947336
	2.925109
	2.903203
	2.881298
	2.856172
	2.832656
	2.811717
	2.791745
	2.769517
	2.746002
	2.724741
	2.700258
	2.674810
	2.652583
	2.627456
	2.601685
	2.578814
	2.556909
	2.535004
	2.510844
	2.487650
	2.463490
	2.436753
	2.412593
	2.387466
	2.360729
	2.336247
	2.312087
	2.288249
	2.265056
	2.241862
	2.217058
	2.189999
	2.164550
	2.138135
	2.111398
	2.085306
	2.059857
	2.037308
	2.011215
	1.984800
	1.959996
	1.932937
	1.906200
	1.880107
	1.854337
	1.825989
	1.797964
	1.773160
	1.747389
	1.721619
	1.696814
	1.669111
	1.643018
	1.614349
	1.587934
	1.558620
	1.529306
	1.503214
	1.478732
	1.451028
	1.424936
	1.398843
	1.370496
	1.342470
	1.314767
	1.286742
	1.255817
	1.227148
	1.201699
	1.174641
	1.147582
	1.121489
	1.094108
	1.064794
	1.036447
	1.008099
	0.977175
	0.948828
	0.920802
	0.891811
	0.866040
	0.840592
	0.810956
	0.781642
	0.753617
	0.726236
	0.696278
	0.665998
	0.639261
	0.609948
	0.583211
	0.556797
	0.527161
	0.498169
	0.468855
	0.440186
	0.409262
	0.378659
	0.351279
	0.323253
	0.296517
	0.269458
	0.239178
	0.209864
	0.181517
	0.150593
	0.120635
	0.090677
	0.064263
	0.035915
	0.008857
	-0.018846
	-0.048804
	-0.077151
	-0.105499
	-0.137389
	-0.167025
	-0.196983
	-0.225652
	-0.253999
	-0.280736
	-0.308117
	-0.336464
	-0.365777
	-0.392836
	-0.423116
	-0.454040
	-0.482387
	-0.512667
	-0.540692
	-0.568073
	-0.594165
	-0.624123
	-0.652148
	-0.679529
	-0.709809
	-0.737512
	-0.766825
	-0.797427
	-0.827385
	-0.855732
	-0.882469
	-0.910171
	-0.937874
	-0.963322
	-0.992958
	-1.021627
	-1.048364
	-1.076389
	-1.105702
	-1.135660
	-1.163685
	-1.190743
	-1.218768
	-1.244216
	-1.271275
	-1.298656
	-1.326680
	-1.354705
	-1.380798
	-1.410111
	-1.438136
	-1.465839
	-1.494508
	-1.520922
	-1.547015
	-1.573429
	-1.599843
	-1.625935
	-1.652028
	-1.678764
	-1.707433
	-1.734814
	-1.762517
	-1.791186
	-1.818244
	-1.842404
	-1.867207
	-1.893944
	-1.921002
	-1.945162
	-1.970288
	-1.997024
	-2.022472
	-2.048564
	-2.075300
	-2.103648
	-2.128129
	-2.151644
	-2.178703
	-2.202862
	-2.226377
	-2.251825
	-2.277595
	-2.303043
	-2.325914
	-2.352328
	-2.377776
	-2.404191
	-2.428672
	-2.454442
	-2.477635
	-2.500184
	-2.520478
	-2.545926
	-2.569763
	-2.594567
	-2.616793
	-2.640953
	-2.666401
	-2.690560
	-2.713431
	-2.738879
	-2.760139
	-2.781399
	-2.802982
	-2.824886
	-2.847757
	-2.870306
	-2.892210
	-2.915404
	-2.938919
	-2.962112
	-2.982083
	-3.006243
	-3.029114
	-3.049730
	-3.070346
	-3.090318
	-3.110934
	-3.131550
	-3.150233
	-3.173426
	-3.195653
	-3.214658
	-3.234308
	-3.257823
	-3.280050
	-3.298733
	-3.319349
	-3.337710
	-3.355749
	-3.375077
	-3.394404
	-3.412765
	-3.432093
	-3.450132
	-3.471714
	-3.491042
	-3.509403
	-3.528731
	-3.548380
	-3.567063
	-3.582203
	-3.598954
	-3.618281
	-3.633743
	-3.650816
	-3.670144
	-3.687216
	-3.704289
	-3.722006
	-3.740367
	-3.756796
	-3.771613
	-3.788364
	-3.802860
	-3.818644
	-3.834428
	-3.849568
	-3.864386
	-3.880170
	-3.895310
	-3.913027
	-3.927522
	-3.943629
	-3.958446
	-3.971654
	-3.986793
	-4.001289
	-4.012886
	-4.026093
	-4.039944
	-4.054762
	-4.066359
	-4.079888
	-4.095350
	-4.105336
	-4.119832
	-4.133683
	-4.144635
	-4.156554
	-4.170405
	-4.182324
	-4.192954
	-4.204551
	-4.215503
	-4.225167
	-4.237408
	-4.247716
	-4.257702
	-4.269620
	-4.279928
	-4.290558
	-4.302799
	-4.312785
	-4.321483
	-4.332113
	-4.341132
	-4.348219
	-4.356594
	-4.365614
	-4.372379
	-4.382042
	-4.391384
	-4.397504
	-4.406202
	-4.415866
	-4.422952
	-4.433905
	-4.440347
	-4.446145
	-4.452266
	-4.457098
	-4.462896
	-4.470305
	-4.476747
	-4.482868
	-4.488988
	-4.495109
	-4.498652
	-4.505739
	-4.512504
	-4.515081
	-4.521845
	-4.526355
	-4.531187
	-4.536019
	-4.537307
	-4.540851
	-4.545360
	-4.546649
	-4.549548
	-4.554380
	-4.556313
	-4.558890
	-4.563722
	-4.567265
	-4.567909
	-4.571453
	-4.572741
	-4.574352
	-4.577251
	-4.576929
	-4.575640
	-4.577895
	-4.576607
	-4.578862
	-4.580472
	-4.579828
	-4.579828
	-4.580472
	-4.580472
	-4.581439
	-4.580472
	-4.579828
	-4.579828
	-4.577251
	-4.574352
	-4.572741
	-4.570808
	-4.567265
	-4.566299
	-4.563400
	-4.559856
	-4.558568
	-4.555346
	-4.553091
	-4.553414
	-4.549870
	-4.546005
	-4.541495
	-4.535375
	-4.530543
	-4.526355
	-4.522167
	-4.517335
	-4.512181
	-4.506705
	-4.501551
	-4.498008
	-4.493498
	-4.487056
	-4.483190
	-4.476103
	-4.469983
	-4.462896
	-4.454521
	-4.447756
	-4.441636
	-4.432938
	-4.426496
	-4.419087
	-4.410712
	-4.404269
	-4.396216
	-4.390418
	-4.380754
	-4.372701
	-4.362393
	-4.353051
	-4.345642
	-4.336300
	-4.326959
	-4.316973
	-4.305054
	-4.297645
	-4.289270
	-4.277673
	-4.268332
	-4.257057
	-4.245783
	-4.233864
	-4.222268
	-4.210349
	-4.199719
	-4.189733
	-4.176848
	-4.163963
	-4.153655
	-4.142380
	-4.131106
	-4.118543
	-4.104692
	-4.090840
	-4.076667
	-4.063459
	-4.049930
	-4.035757
	-4.023194
	-4.009664
	-3.995169
	-3.983894
	-3.971331
	-3.955869
	-3.941696
	-3.926556
	-3.909483
	-3.892411
	-3.877915
	-3.862131
	-3.846669
	-3.832495
	-3.817999
	-3.803504
	-3.787720
	-3.771613
	-3.754863
	-3.737146
	-3.719751
	-3.702034
	-3.683029
	-3.666922
	-3.650172
	-3.632777
	-3.615704
	-3.598632
	-3.583170
	-3.563520
	-3.543226
	-3.525831
	-3.506504
	-3.486854
	-3.470104
	-3.450776
	-3.430804
	-3.410833
	-3.394726
	-3.376043
	-3.356071
	-3.337066
	-3.316450
	-3.295189
	-3.274573
	-3.254280
	-3.235274
	-3.214014
	-3.190821
	-3.173104
	-3.153132
	-3.133805
	-3.112222
	-3.091928
	-3.071312
	-3.047475
	-3.024604
	-3.003666
	-2.980795
	-2.959535
	-2.936986
	-2.917014
	-2.895432
	-2.872239
	-2.851945
	-2.828430
	-2.803626
	-2.779789
	-2.756918
	-2.734369
	-2.710854
	-2.686050
	-2.665434
	-2.643208
	-2.619692
	-2.595855
	-2.572340
	-2.547536
	-2.522733
	-2.496641
	-2.473447
	-2.450254
	-2.425451
	-2.399681
	-2.375844
	-2.353295
	-2.329135
	-2.305298
	-2.280817
	-2.253436
	-2.225733
	-2.198675
	-2.175804
	-2.149389
	-2.123619
	-2.098816
	-2.074012
	-2.050175
	-2.026015
	-1.999923
	-1.974797
	-1.945484
	-1.916815
	-1.891045
	-1.864953
	-1.839505
	-1.811480
	-1.787965
	-1.763161
	-1.735458
	-1.709044
	-1.681019
	-1.653316
	-1.625613
	-1.598877
	-1.572462
	-1.544760
	-1.517379
	-1.491287
	-1.465839
	-1.439102
	-1.410433
	-1.383697
	-1.354383
	-1.324426
	-1.297045
	-1.269986
	-1.241639
	-1.213614
	-1.186878
	-1.159175
	-1.131150
	-1.105058
	-1.077999
	-1.050618
	-1.021627
	-0.993602
	-0.963967
	-0.934653
	-0.905984
	-0.880214
	-0.851867
	-0.820942
	-0.796139
	-0.769080
	-0.739767
	-0.711419
	-0.681784
	-0.651826
	-0.620902
	-0.592877
	-0.565174
	-0.534572
	-0.507835
	-0.479810
	-0.451463
	-0.424405
	-0.396702
	-0.367710
	-0.337430
	-0.309083
	-0.280736
	-0.249812
	-0.220498
	-0.192473
	-0.163159
	-0.134168
	-0.106465
	-0.077796
	-0.049126
	-0.022068
	0.008212
	0.039137
	0.067806
	0.095831
	0.125467
	0.154136
	0.183450
	0.211153
	0.239178
	0.265915
	0.294584
	0.325830
	0.355144
	0.384136
	0.413771
	0.442119
	0.469822
	0.499780
	0.527483
	0.555508
	0.583211
	0.609948
	0.640872
	0.668897
	0.697567
	0.728491
	0.756516
	0.785186
	0.812245
	0.839948
	0.867329
	0.895032
	0.923057
	0.953015
	0.982007
	1.009710
	1.038702
	1.067371
	1.094752
	1.121489
	1.150159
	1.175607
	1.202666
	1.232302
	1.262260
	1.290930
	1.317666
	1.346014
	1.372106
	1.397233
	1.423647
	1.451351
	1.477443
	1.505469
	1.534782
	1.563130
	1.590189
	1.618214
	1.646562
	1.672655
	1.699069
	1.722263
	1.748678
	1.775737
	1.801185
	1.829533
	1.856270
	1.884617
	1.909099
	1.933903
	1.962573
	1.986733
	2.009927
	2.036986
	2.064045
	2.089493
	2.115264
	2.142001
	2.168416
	2.191609
	2.217380
	2.241862
	2.265700
	2.289216
	2.313054
	2.341401
	2.366528
	2.391332
	2.417747
	2.441263
	2.465423
	2.489583
	2.511810
	2.535004
	2.557231
	2.581069
	2.606517
	2.631000
	2.656448
	2.679964
	2.702836
	2.724741
	2.747290
	2.772417
	2.793033
	2.813972
	2.836844
	2.859071
	2.880010
	2.904492
	2.928974
	2.952168
	2.972785
	2.995334
	3.018528
	3.037856
	3.057829
	3.078123
	3.099384
	3.120001
	3.141906
	3.165100
	3.186039
	3.205689
	3.227272
	3.248855
	3.267539
	3.285901
	3.304907
	3.325202
	3.344852
	3.365469
	3.386408
	3.406058
	3.424742
	3.441815
	3.462754
	3.481438
	3.497867
	3.516873
	3.533947
	3.551664
	3.569382
	3.589999
	3.609649
	3.626722
	3.646051
	3.663124
	3.677298
	3.695016
	3.711445
	3.729162
	3.743014
	3.757188
	3.776517
	3.792624
	3.808408
	3.827415
	3.843844
	3.858984
	3.873481
	3.888943
	3.902795
	3.914714
	3.929533
	3.945640
	3.961747
	3.976565
	3.990739
	4.005880
	4.019410
	4.032940
	4.046147
	4.059033
	4.069341
	4.082871
	4.099300
	4.113152
	4.125072
	4.137957
	4.150843
	4.161473
	4.173393
	4.184023
	4.194332
	4.205285
	4.218492
	4.232667
	4.242331
	4.251351
	4.263914
	4.273256
	4.281310
	4.290974
	4.300638
	4.311269
	4.320933
	4.332530
	4.343161
	4.352503
	4.360556
	4.370221
	4.378919
	4.384395
	4.392126
	4.401468
	4.406945
	4.415965
	4.425951
	4.434005
	4.440448
	4.446568
	4.453655
	4.459132
	4.463642
	4.470407
	4.476205
	4.483615
	4.491024
	4.497789
	4.504232
	4.507131
	4.511963
	4.518084
	4.520339
	4.523560
	4.528392
	4.532902
	4.537090
	4.542889
	4.549331
	4.549976
	4.552553
	4.556096
	4.558351
	4.558351
	4.559640
	4.563828
	4.566405
	4.567371
	4.572848
	4.576069
	4.573814
	4.575747
	4.577358
	4.577358
	4.578002
	4.577358
	4.578002
	4.576714
	4.578969
	4.580579
	4.580257
	4.579613
	4.577036
	4.577358
	4.574459
	4.571237
	4.571559
	4.568660
	4.567371
	4.568016
	4.566727
	4.563506
	4.561251
	4.559318
	4.555452
	4.550620
	4.546754
	4.541922
	4.537090
	4.536446
	4.533224
	4.529359
	4.525493
	4.520983
	4.516473
	4.512285
	4.507131
	4.501332
	4.493279
	4.488769
	4.483937
	4.479105
	4.473306
	4.466541
	4.461709
	4.453011
	4.446890
	4.439481
	4.431105
	4.422085
	4.415643
	4.409200
	4.401791
	4.394381
	4.388583
	4.378919
	4.368610
	4.362489
	4.354114
	4.342517
	4.330597
	4.322222
	4.312235
	4.303537
	4.296128
	4.287108
	4.275833
	4.265525
	4.254894
	4.245552
	4.233311
	4.221714
	4.210117
	4.197875
	4.184023
	4.174681
	4.164695
	4.153420
	4.142145
	4.131514
	4.117662
	4.104455
	4.092535
	4.079006
	4.064187
	4.050013
	4.036161
	4.023275
	4.010390
	3.997826
	3.986551
	3.970444
	3.955626
	3.941130
	3.925345
	3.908272
	3.893131
	3.879923
	3.862206
	3.847709
	3.834824
	3.819361
	3.803576
	3.787147
	3.772973
	3.754611
	3.737216
	3.720465
	3.703713
	3.684385
	3.668600
	3.652171
	3.634776
	3.618991
	3.602240
	3.585489
	3.566160
	3.549087
	3.530403
	3.511719
	3.493357
	3.473707
	3.454057
	3.434406
	3.414756
	3.397360
	3.378676
	3.358382
	3.341309
	3.322303
	3.302008
	3.281069
	3.262385
	3.241768
	3.217930
	3.197958
	3.177019
	3.155758
	3.136430
	3.118068
	3.097773
	3.074257
	3.053641
	3.033024
	3.010797
	2.989214
	2.966342
	2.943148
	2.920277
	2.897083
	2.876788
	2.854561
	2.832978
	2.812361
	2.790134
	2.767585
	2.744069
	2.721519
	2.698004
	2.672877
	2.649361
	2.624557
	2.600397
	2.577203
	2.554332
	2.534681
	2.508266
	2.484429
	2.461557
	2.436109
	2.410660
	2.386822
	2.361374
	2.335281
	2.309188
	2.285994
	2.261190
	2.237030
	2.213192
	2.188388
	2.162940
	2.137169
	2.111076
	2.087238
	2.058569
	2.030865
	2.005095
	1.980935
	1.956775
	1.931971
	1.906522
	1.878819
	1.852404
	1.826633
	1.798286
	1.770260
	1.744490
	1.716787
	1.690694
	1.664279
	1.639153
	1.613382
	1.584391
	1.559587
	1.533494
	1.505146
	1.473900
	1.446519
	1.420426
	1.394011
	1.367274
	1.340860
	1.313801
	1.284809
	1.257428
	1.231013
	1.202022
	1.172708
	1.143716
	1.116657
	1.087343
	1.059962
	1.033226
	1.007455
	0.978141
	0.950438
	0.923379
	0.893743
	0.864430
	0.836404
	0.808379
	0.778421
	0.748463
	0.722371
	0.695312
	0.665998
	0.639584
	0.610914
	0.581278
	0.553253
	0.525550
	0.497525
	0.466278
	0.436643
	0.407973
	0.378659
	0.348379
	0.319066
	0.293296
	0.265270
	0.235635
	0.207932
	0.180229
	0.149304
	0.120957
	0.092610
	0.064907
	0.033983
	0.003380
	-0.025289
	-0.056535
	-0.082950
	-0.109686
	-0.137067
	-0.167025
	-0.196661
	-0.224041
	-0.253033
	-0.282669
	-0.310372
	-0.339363
	-0.369321
	-0.398956
	-0.426982
	-0.455973
	-0.483998
	-0.510735
	-0.538437
	-0.567429
	-0.596742
	-0.624445
	-0.653759
	-0.682106
	-0.711419
	-0.740411
	-0.771657
	-0.800648
	-0.827063
	-0.856698
	-0.885046
	-0.911138
	-0.938196
	-0.965255
	-0.994891
	-1.021949
	-1.051585
	-1.078966
	-1.105380
	-1.134049
	-1.163040
	-1.192032
	-1.219413
	-1.247760
	-1.275462
	-1.302843
	-1.330224
	-1.358571
	-1.384985
	-1.410755
	-1.438780
	-1.467449
	-1.492575
	-1.518345
	-1.547337
	-1.573751
	-1.600810
	-1.628834
	-1.656859
	-1.684884
	-1.710332
	-1.738035
	-1.765094
	-1.790219
	-1.815345
	-1.840471
	-1.867852
	-1.894266
	-1.921002
	-1.948705
	-1.973187
	-1.997024
	-2.023760
	-2.051463
	-2.077233
	-2.103325
	-2.130062
	-2.156154
	-2.179025
	-2.203829
	-2.229276
	-2.252792
	-2.277595
	-2.302721
	-2.328491
	-2.352006
	-2.375199
	-2.401291
	-2.427061
	-2.453798
	-2.477957
	-2.502439
	-2.527242
	-2.549469
	-2.572018
	-2.594567
	-2.617760
	-2.641597
	-2.664146
	-2.687983
	-2.712465
	-2.736302
	-2.760461
	-2.783010
	-2.808458
	-2.830685
	-2.850656
	-2.872883
	-2.894465
	-2.917658
	-2.937308
	-2.959213
	-2.982406
	-3.003988
	-3.027181
	-3.051985
	-3.073567
	-3.093539
	-3.113189
	-3.133805
	-3.153776
	-3.173748
	-3.195975
	-3.216269
	-3.236885
	-3.255568
	-3.276184
	-3.299055
	-3.319671
	-3.339321
	-3.358326
	-3.377654
	-3.396015
	-3.412765
	-3.432415
	-3.452065
	-3.469782
	-3.488143
	-3.507792
	-3.528086
	-3.547736
	-3.565453
	-3.586391
	-3.604752
	-3.619892
	-3.636320
	-3.652427
	-3.670144
	-3.686250
	-3.704611
	-3.721684
	-3.736179
	-3.754863
	-3.773868
	-3.789330
	-3.805437
	-3.820899
	-3.836361
	-3.848924
	-3.865996
	-3.881780
	-3.895310
	-3.911094
	-3.926556
	-3.940729
	-3.956836
	-3.972620
	-3.988726
	-4.002255
	-4.015785
	-4.030603
	-4.041555
	-4.053796
	-4.067325
	-4.081176
	-4.092773
	-4.105658
	-4.118221
	-4.130462
	-4.143025
	-4.155910
	-4.168150
	-4.181680
	-4.195531
	-4.206806
	-4.218402
	-4.229032
	-4.238374
	-4.247071
	-4.258346
	-4.269942
	-4.278318
	-4.289592
	-4.300222
	-4.310530
	-4.321483
	-4.331791
	-4.340166
	-4.349185
	-4.356916
	-4.365292
	-4.372701
	-4.381398
	-4.390095
	-4.396216
	-4.405558
	-4.414255
	-4.423919
	-4.430683
	-4.438737
	-4.447434
	-4.451944
	-4.457742
	-4.463218
	-4.469339
	-4.475137
	-4.482224
	-4.487700
	-4.493176
	-4.501229
	-4.507350
	-4.511859
	-4.517013
	-4.521201
	-4.524100
	-4.527966
	-4.533442
	-4.536663
	-4.540206
	-4.544072
	-4.549226
	-4.552125
	-4.556957
	-4.559212
	-4.560500
	-4.563400
	-4.564688
	-4.566299
	-4.568554
	-4.570808
	-4.572097
	-4.573708
	-4.574996
	-4.576285
	-4.578217
	-4.581761
	-4.582405
	-4.584016
	-4.584338
	-4.579506
	-4.579184
	-4.579184
	-4.576607
	-4.576929
	-4.576929
	-4.575318
	-4.573708
	-4.573708
	-4.573708
	-4.571453
	-4.570486
	-4.566621
	-4.562111
	-4.561467
	-4.556313
	-4.553091
	-4.552125
	-4.548260
	-4.545038
	-4.542461
	-4.540206
	-4.536341
	-4.533764
	-4.528932
	-4.522812
	-4.516369
	-4.511537
	-4.503806
	-4.499296
	-4.494464
	-4.489633
	-4.483190
	-4.479969
	-4.475781
	-4.468372
	-4.462896
	-4.455165
	-4.446145
	-4.439703
	-4.432616
	-4.424563
	-4.416510
	-4.410389
	-4.403947
	-4.396538
	-4.389773
	-4.380110
	-4.368191
	-4.360782
	-4.350152
	-4.341132
	-4.331791
	-4.322771
	-4.312785
	-4.303766
	-4.295068
	-4.287015
	-4.277351
	-4.268010
	-4.255769
	-4.243850
	-4.233220
	-4.220013
	-4.209060
	-4.197464
	-4.186512
	-4.173304
	-4.162674
	-4.152366
	-4.139481
	-4.128207
	-4.117899
	-4.103403
	-4.088585
	-4.075056
	-4.061849
	-4.048320
	-4.034790
	-4.021583
	-4.007732
	-3.995813
	-3.983250
	-3.968110
	-3.953292
	-3.937186
	-3.922046
	-3.906262
	-3.890478
	-3.875982
	-3.860198
	-3.844092
	-3.832495
	-3.816389
	-3.801249
	-3.784176
	-3.768070
	-3.750675
	-3.731670
	-3.715886
	-3.698491
	-3.679485
	-3.663057
	-3.647595
	-3.631166
	-3.613127
	-3.597665
	-3.579626
	-3.559010
	-3.540971
	-3.522288
	-3.501672
	-3.483311
	-3.465916
	-3.447555
	-3.428227
	-3.409866
	-3.392149
	-3.375077
	-3.354783
	-3.334167
	-3.313873
	-3.291968
	-3.271674
	-3.251703
	-3.232375
	-3.210470
	-3.192109
	-3.171171
	-3.153454
	-3.133160
	-3.109323
	-3.086452
	-3.064870
	-3.043609
	-3.020416
	-2.999156
	-2.978540
	-2.957280
	-2.937630
	-2.913793
	-2.892533
	-2.870628
	-2.846147
	-2.821987
	-2.798472
	-2.776567
	-2.753697
	-2.729215
	-2.706988
	-2.686372
	-2.665112
	-2.640953
	-2.615505
	-2.592312
	-2.568152
	-2.543349
	-2.519189
	-2.495030
	-2.470870
	-2.447033
	-2.423518
	-2.402258
	-2.375521
	-2.350073
	-2.323015
	-2.299500
	-2.274052
	-2.247960
	-2.221545
	-2.198997
	-2.174515
	-2.151000
	-2.124908
	-2.100104
	-2.071435
	-2.043732
	-2.018929
	-1.993803
	-1.968355
	-1.940652
	-1.916170
	-1.892333
	-1.864953
	-1.838860
	-1.813412
	-1.784421
	-1.755752
	-1.729660
	-1.703568
	-1.676187
	-1.649451
	-1.625935
	-1.599843
	-1.572462
	-1.543149
	-1.515768
	-1.487743
	-1.461007
	-1.432982
	-1.405601
	-1.378543
	-1.352773
	-1.326358
	-1.300588
	-1.271919
	-1.240995
	-1.212648
	-1.185267
	-1.156920
	-1.127929
	-1.100226
	-1.074456
	-1.047397
	-1.019694
	-0.992636
	-0.961067
	-0.933365
	-0.903407
	-0.876348
	-0.848645
	-0.818688
	-0.789696
	-0.764570
	-0.737834
	-0.709165
	-0.679851
	-0.650215
	-0.619291
	-0.589333
	-0.563563
	-0.534572
	-0.505580
	-0.476589
	-0.451463
	-0.423760
	-0.393158
	-0.364811
	-0.334853
	-0.304895
	-0.276226
	-0.248201
	-0.219532
	-0.189896
	-0.160260
	-0.134490
	-0.106465
	-0.076185
	-0.046871
	-0.018846
	0.010145
	0.041392
	0.070061
	0.097120
	0.127722
	0.156391
	0.184738
	0.212441
	0.240467
	0.270102
	0.296517
	0.326153
	0.355466
	0.386068
	0.415060
	0.444696
	0.473687
	0.501068
	0.530382
	0.559696
	0.586110
	0.614135
	0.641194
	0.670508
	0.698855
	0.728813
	0.758449
	0.787441
	0.814178
	0.842847
	0.872483
	0.900186
	0.925634
	0.953015
	0.981363
	1.007777
	1.037413
	1.067371
	1.096041
	1.124066
	1.152736
	1.182694
	1.207820
	1.233912
	1.260971
	1.287386
	1.316056
	1.344725
	1.373717
	1.400776
	1.427835
	1.456827
	1.482919
	1.507723
	1.534782
	1.562164
	1.590511
	1.617892
	1.646240
	1.673299
	1.699714
	1.725806
	1.750932
	1.774770
	1.800863
	1.829533
	1.859491
	1.885261
	1.911354
	1.937769
	1.963862
	1.989310
	2.014436
	2.039885
	2.063078
	2.086916
	2.114297
	2.141357
	2.166483
	2.194186
	2.219313
	2.243795
	2.268277
	2.294692
	2.318852
	2.340113
	2.364595
	2.389721
	2.414526
	2.440941
	2.466067
	2.491193
	2.513421
	2.537903
	2.562707
	2.584290
	2.606840
	2.629711
	2.655160
	2.679320
	2.701547
	2.726674
	2.749867
	2.771128
	2.795288
	2.817516
	2.839099
	2.859715
	2.880332
	2.904170
	2.926075
	2.950880
	2.975362
	2.996623
	3.017239
	3.039145
	3.060406
	3.078767
	3.099062
	3.121611
	3.143839
	3.165100
	3.186361
	3.208588
	3.228239
	3.247567
	3.268184
	3.285901
	3.301686
	3.323269
	3.345174
	3.366113
	3.385763
	3.406380
	3.425709
	3.444070
	3.462432
	3.480472
	3.498189
	3.516551
	3.535235
	3.555208
	3.573892
	3.591932
	3.610616
	3.628333
	3.645084
	3.660869
	3.677298
	3.694049
	3.708868
	3.726907
	3.743659
	3.760088
	3.777805
	3.795845
	3.811952
	3.827415
	3.842877
	3.859951
	3.872192
	3.887010
	3.901185
	3.916969
	3.930821
	3.946284
	3.964324
	3.978176
	3.991706
	4.006202
	4.020376
	4.033262
	4.044537
	4.058389
	4.070308
	4.082871
	4.098012
	4.113475
	4.125072
	4.137635
	4.151487
	4.161473
	4.173071
	4.184668
	4.195298
	4.204640
	4.216882
	4.227834
	4.240398
	4.252317
	4.262303
	4.273256
	4.281310
	4.291296
	4.301605
	4.309980
	4.319645
	4.331242
	4.343805
	4.351214
	4.359268
	4.369576
	4.377952
	4.385039
	4.392771
	4.400502
	4.406945
	4.413388
	4.422730
	4.433038
	4.439481
	4.446890
	4.453977
	4.460420
	4.466219
	4.472017
	4.476205
	4.480071
	4.486836
	4.495856
	4.500688
	4.506487
	4.511963
	4.516795
	4.521305
	4.526137
	4.531936
	4.533869
	4.536446
	4.540634
	4.542889
	4.545788
	4.549331
	4.554486
	4.556096
	4.559640
	4.564794
	4.565439
	4.568338
	4.570271
	4.569949
	4.569949
	4.570915
	4.571237
	4.572848
	4.575425
	4.579613
	4.578646
	4.578324
	4.579291
	4.579291
	4.578002
	4.576391
	4.575747
	4.574459
	4.571881
	4.572204
	4.571881
	4.571881
	4.572526
	4.570593
	4.568016
	4.565439
	4.563184
	4.558674
	4.555130
	4.552875
	4.547399
	4.542889
	4.542244
	4.539989
	4.536768
	4.533224
	4.530325
	4.525493
	4.518406
	4.512607
	4.508419
	4.502299
	4.497467
	4.493279
	4.488447
	4.483292
	4.478782
	4.472340
	4.464286
	4.459776
	4.452367
	4.443347
	4.436582
	4.428850
	4.420153
	4.414032
	4.409200
	4.402435
	4.392126
	4.386328
	4.377630
	4.368932
	4.362167
	4.353147
	4.341872
	4.330919
	4.321255
	4.311591
	4.301283
	4.292907
	4.284531
	4.274545
	4.264881
	4.255216
	4.243941
	4.231700
	4.221069
	4.209472
	4.196265
	4.184023
	4.172104
	4.161796
	4.152131
	4.140534
	4.129904
	4.114763
	4.102522
	4.090925
	4.078039
	4.063221
	4.047758
	4.034228
	4.019410
	4.005236
	3.993961
	3.981075
	3.966579
	3.955304
	3.941130
	3.925989
	3.910204
	3.894742
	3.880245
	3.861239
	3.845777
	3.830958
	3.813885
	3.800677
	3.785537
	3.770396
	3.753323
	3.736249
	3.719820
	3.703713
	3.685674
	3.668923
	3.651849
	3.633487
	3.613515
	3.597408
	3.581623
	3.563906
	3.545866
	3.527504
	3.511719
	3.491102
	3.473385
	3.455345
	3.434728
	3.415400
	3.394139
	3.374811
	3.352906
	3.333899
	3.317470
	3.297498
	3.278814
	3.259808
	3.239513
	3.219219
	3.198924
	3.178630
	3.157046
	3.133208
	3.113236
	3.092297
	3.068459
	3.049453
	3.029158
	3.008220
	2.986959
	2.966020
	2.944759
	2.920921
	2.899982
	2.877433
	2.852306
	2.829435
	2.806241
	2.783691
	2.761464
	2.739237
	2.719264
	2.695426
	2.672555
	2.649039
	2.626490
	2.601363
	2.576881
	2.555298
	2.528561
	2.504079
	2.480241
	2.455759
	2.430310
	2.407439
	2.383601
	2.360407
	2.335603
	2.311443
	2.287605
	2.261512
	2.237674
	2.211904
	2.186133
	2.157785
	2.131048
	2.107533
	2.080474
	2.056636
	2.032476
	2.007027
	1.981901
	1.956130
	1.930360
	1.903623
	1.877208
	1.850793
	1.822446
	1.794742
	1.768650
	1.743523
	1.717431
	1.690694
	1.664601
	1.638831
	1.610805
	1.584068
	1.557976
	1.529950
	1.501603
	1.471645
	1.444908
	1.417849
	1.391112
	1.366308
	1.339249
	1.311546
	1.283198
	1.256139
	1.228436
	1.199445
	1.172386
	1.142428
	1.113436
	1.086377
	1.059318
	1.031615
	1.003912
	0.978141
	0.949150
	0.919836
	0.892455
	0.863463
	0.834150
	0.805158
	0.775844
	0.748463
	0.718183
	0.691768
	0.665676
	0.638617
	0.608981
	0.579990
	0.552287
	0.523295
	0.493015
	0.464023
	0.434066
	0.404108
	0.376405
	0.348057
	0.321321
	0.292329
	0.263982
	0.235312
	0.205999
	0.178296
	0.149949
	0.118702
	0.089389
	0.059753
	0.031406
	0.001126
	-0.027866
	-0.053958
	-0.083272
	-0.111297
	-0.138356
	-0.167347
	-0.197627
	-0.227263
	-0.254644
	-0.284924
	-0.315203
	-0.343873
	-0.372220
	-0.399923
	-0.427626
	-0.455007
	-0.483354
	-0.512345
	-0.539726
	-0.569039
	-0.600608
	-0.630888
	-0.659235
	-0.687904
	-0.715285
	-0.741699
	-0.768436
	-0.798716
	-0.827707
	-0.854766
	-0.884079
	-0.914037
	-0.942384
	-0.969765
	-0.998112
	-1.026459
	-1.052229
	-1.079610
	-1.106991
	-1.134049
	-1.162074
	-1.191388
	-1.220057
	-1.247437
	-1.273208
	-1.303165
	-1.330546
	-1.361470
	-1.388529
	-1.415265
	-1.441679
	-1.465517
	-1.493220
	-1.522855
	-1.548947
	-1.575684
	-1.601454
	-1.629801
	-1.656859
	-1.684562
	-1.713554
	-1.738679
	-1.762839
	-1.790219
	-1.816312
	-1.842726
	-1.867852
	-1.897165
	-1.923579
	-1.949672
	-1.977052
	-2.004433
	-2.027948
	-2.052107
	-2.077555
	-2.104292
	-2.128451
	-2.151966
	-2.178381
	-2.205117
	-2.231531
	-2.256979
	-2.283394
	-2.309164
	-2.330424
	-2.354583
	-2.379387
	-2.403868
	-2.427384
	-2.451865
	-2.478279
	-2.503405
	-2.526598
	-2.552046
	-2.578460
	-2.599721
	-2.621625
	-2.643208
	-2.666401
	-2.690238
	-2.713753
	-2.736624
	-2.761105
	-2.783976
	-2.806203
	-2.830685
	-2.854844
	-2.877393
	-2.898331
	-2.917981
	-2.941818
	-2.962434
	-2.983372
	-3.004310
	-3.026215
	-3.049086
	-3.069702
	-3.090962
	-3.116088
	-3.136382
	-3.157642
	-3.176647
	-3.197263
	-3.217235
	-3.237529
	-3.256857
	-3.277473
	-3.298733
	-3.318382
	-3.337388
	-3.360259
	-3.379264
	-3.398270
	-3.418886
	-3.435958
	-3.453353
	-3.471070
	-3.489753
	-3.509081
	-3.526798
	-3.545159
	-3.565775
	-3.586391
	-3.604430
	-3.620536
	-3.638897
	-3.655648
	-3.671754
	-3.688505
	-3.704289
	-3.721684
	-3.737146
	-3.753896
	-3.772580
	-3.789652
	-3.806081
	-3.823798
	-3.838938
	-3.852467
	-3.866318
	-3.882747
	-3.895954
	-3.910772
	-3.926878
	-3.941374
	-3.955869
	-3.971331
	-3.987760
	-4.003222
	-4.015785
	-4.030925
	-4.042843
	-4.054440
	-4.068613
	-4.082465
	-4.094706
	-4.105980
	-4.119509
	-4.132394
	-4.145924
	-4.158809
	-4.171372
	-4.183290
	-4.192954
	-4.205195
	-4.216147
	-4.226133
	-4.237730
	-4.248682
	-4.258346
	-4.269620
	-4.280572
	-4.291525
	-4.302799
	-4.314074
	-4.324060
	-4.332435
	-4.340166
	-4.348541
	-4.354984
	-4.364970
	-4.374311
	-4.381398
	-4.388807
	-4.398149
	-4.405558
	-4.415221
	-4.425529
	-4.432294
	-4.438737
	-4.446790
	-4.452910
	-4.456776
	-4.465151
	-4.471271
	-4.475137
	-4.483190
	-4.489310
	-4.494464
	-4.501551
	-4.508960
	-4.513148
	-4.517980
	-4.522489
	-4.523134
	-4.528288
	-4.534086
	-4.536663
	-4.541495
	-4.545360
	-4.547937
	-4.551803
	-4.555991
	-4.560178
	-4.561789
	-4.565654
	-4.566943
	-4.567587
	-4.569198
	-4.570164
	-4.572097
	-4.573708
	-4.575318
	-4.576929
	-4.577895
	-4.580150
	-4.582405
	-4.581761
	-4.583049
	-4.580794
	-4.578217
	-4.579506
	-4.578217
	-4.577251
	-4.577573
	-4.576285
	-4.574996
	-4.573708
	-4.574352
	-4.573063
	-4.568876
	-4.566621
	-4.562433
	-4.559856
	-4.558246
	-4.554702
	-4.551481
	-4.552125
	-4.549548
	-4.545038
	-4.542461
	-4.537629
	-4.528932
	-4.526355
	-4.523134
	-4.516369
	-4.510893
	-4.506705
	-4.504450
	-4.499296
	-4.494464
	-4.487378
	-4.479647
	-4.473848
	-4.467406
	-4.459031
	-4.453554
	-4.448400
	-4.440025
	-4.432938
	-4.427462
	-4.421986
	-4.413933
	-4.407490
	-4.396538
	-4.387841
	-4.380110
	-4.368835
	-4.358849
	-4.352085
	-4.343709
	-4.333401
	-4.323737
	-4.316329
	-4.306020
	-4.297645
	-4.288626
	-4.277029
	-4.265755
	-4.254158
	-4.243528
	-4.232576
	-4.221946
	-4.210671
	-4.200041
	-4.187800
	-4.175237
	-4.165573
	-4.153655
	-4.142058
	-4.130462
	-4.117899
	-4.103081
	-4.089552
	-4.076667
	-4.062493
	-4.049930
	-4.036401
	-4.022872
	-4.010309
	-3.997424
	-3.983894
	-3.968110
	-3.952970
	-3.936542
	-3.923335
	-3.906262
	-3.890478
	-3.877915
	-3.863097
	-3.848924
	-3.833784
	-3.817677
	-3.801571
	-3.783532
	-3.766137
	-3.750353
	-3.734891
	-3.716852
	-3.699135
	-3.684961
	-3.669177
	-3.651460
	-3.634388
	-3.617315
	-3.597021
	-3.578016
	-3.560299
	-3.543226
	-3.523899
	-3.504249
	-3.486210
	-3.469459
	-3.451420
	-3.433381
	-3.414376
	-3.395693
	-3.375077
	-3.354138
	-3.334167
	-3.314195
	-3.293901
	-3.273285
	-3.254602
	-3.233986
	-3.213370
	-3.193076
	-3.173104
	-3.154098
	-3.133160
	-3.111900
	-3.088707
	-3.067447
	-3.045542
	-3.022993
	-3.003022
	-2.980795
	-2.957602
	-2.937308
	-2.914437
	-2.893821
	-2.872561
	-2.848724
	-2.825208
	-2.802015
	-2.779144
	-2.754985
	-2.731470
	-2.708921
	-2.686050
	-2.662535
	-2.638698
	-2.616149
	-2.594245
	-2.571374
	-2.547858
	-2.523699
	-2.499540
	-2.474092
	-2.448644
	-2.423840
	-2.400325
	-2.374877
	-2.350396
	-2.325592
	-2.303043
	-2.278240
	-2.252792
	-2.228954
	-2.203506
	-2.176126
	-2.149389
	-2.123297
	-2.097205
	-2.072079
	-2.045987
	-2.022472
	-1.998957
	-1.973187
	-1.946772
	-1.921647
	-1.892977
	-1.864630
	-1.837572
	-1.811480
	-1.786032
	-1.759295
	-1.732881
	-1.709044
	-1.681019
	-1.652672
	-1.624969
	-1.598233
	-1.571818
	-1.544438
	-1.517701
	-1.490965
	-1.464872
	-1.437170
	-1.410111
	-1.384341
	-1.355672
	-1.325070
	-1.298656
	-1.270631
	-1.241317
	-1.212970
	-1.186556
	-1.159175
	-1.132761
	-1.106024
	-1.078643
	-1.048686
	-1.018728
	-0.990381
	-0.963000
	-0.933365
	-0.905017
	-0.879569
	-0.853477
	-0.825452
	-0.796139
	-0.767792
	-0.738478
	-0.708520
	-0.679529
	-0.650215
	-0.621546
	-0.592555
	-0.564852
	-0.538437
	-0.509768
	-0.481099
	-0.452107
	-0.423116
	-0.392514
	-0.363200
	-0.335497
	-0.306184
	-0.275582
	-0.249812
	-0.223075
	-0.193117
	-0.164448
	-0.136101
	-0.106143
	-0.076185
	-0.045583
	-0.017558
	0.010467
	0.039781
	0.066195
	0.092610
	0.121923
	0.152848
	0.180229
	0.211153
	0.241433
	0.270747
	0.298772
	0.326797
	0.355788
	0.382525
	0.409906
	0.438897
	0.468855
	0.499135
	0.528127
	0.557119
	0.586110
	0.612203
	0.641516
	0.667609
	0.695956
	0.723981
	0.752973
	0.782609
	0.811923
	0.841236
	0.870872
	0.898898
	0.925956
	0.952693
	0.980718
	1.006811
	1.034836
	1.064794
	1.093464
	1.121811
	1.152091
	1.179472
	1.206531
	1.233912
	1.260971
	1.288352
	1.313801
	1.342148
	1.369851
	1.396910
	1.426546
	1.455538
	1.482275
	1.507723
	1.535749
	1.563452
	1.588256
	1.614993
	1.642052
	1.669111
	1.693915
	1.721296
	1.750610
	1.777992
	1.802796
	1.830499
	1.856914
	1.882362
	1.907166
	1.933581
	1.959352
	1.983190
	2.009927
	2.037308
	2.063078
	2.088849
	2.114942
	2.142967
	2.166161
	2.190643
	2.217058
	2.243473
	2.266988
	2.290182
	2.315953
	2.339791
	2.362984
	2.388755
	2.414526
	2.439330
	2.464134
	2.489583
	2.513421
	2.535648
	2.560774
	2.583646
	2.604585
	2.627134
	2.651294
	2.676743
	2.700258
	2.724741
	2.748579
	2.771128
	2.793355
	2.817193
	2.838776
	2.859071
	2.878399
	2.902881
	2.925431
	2.948947
	2.972785
	2.996301
	3.016595
	3.037534
	3.060406
	3.080700
	3.099384
	3.120323
	3.141906
	3.161879
	3.183784
	3.205367
	3.227594
	3.246278
	3.267217
	3.289445
	3.305551
	3.326168
	3.346463
	3.363536
	3.383186
	3.402192
	3.422487
	3.440205
	3.461144
	3.482405
	3.499800
	3.518484
	3.536202
	3.554564
	3.571959
	3.588066
	3.606106
	3.622535
	3.641541
	3.660869
	3.676976
	3.695660
	3.712411
	3.729485
	3.745591
	3.761376
	3.777805
	3.790691
	3.807764
	3.825160
	3.841911
	3.858340
	3.873803
	3.889588
	3.903762
	3.918580
	3.932110
	3.944029
	3.958847
	3.974310
	3.988484
	4.002981
	4.017799
	4.033262
	4.046147
	4.059355
	4.072885
	4.084160
	4.095113
	4.109609
	4.122817
	4.135380
	4.148588
	4.161473
	4.174037
	4.184990
	4.196265
	4.208828
	4.217204
	4.225902
	4.237821
	4.248451
	4.258760
	4.271646
	4.283887
	4.292907
	4.303860
	4.312880
	4.322544
	4.331242
	4.340262
	4.348315
	4.355080
	4.364100
	4.374086
	4.385039
	4.392448
	4.401146
	4.409522
	4.415643
	4.422085
	4.431750
	4.436904
	4.442058
	4.448823
	4.454944
	4.462353
	4.470085
	4.477816
	4.485547
	4.491024
	4.495856
	4.501977
	4.506809
	4.510030
	4.515507
	4.519050
	4.521305
	4.525815
	4.530003
	4.533547
	4.538057
	4.543533
	4.548687
	4.550942
	4.553519
	4.556741
	4.559962
	4.562217
	4.564150
	4.567049
	4.567049
	4.568016
	4.569949
	4.570271
	4.572526
	4.574459
	4.576069
	4.578324
	4.578324
	4.578324
	4.579935
	4.579291
	4.578646
	4.576391
	4.575425
	4.573814
	4.571237
	4.573170
	4.573170
	4.572848
	4.572204
	4.569626
	4.568016
	4.563506
	4.561573
	4.559962
	4.554486
	4.550298
	4.547399
	4.547721
	4.543533
	4.540956
	4.538379
	4.534191
	4.529359
	4.524527
	4.519372
	4.513896
	4.507131
	4.503265
	4.498755
	4.493601
	4.489091
	4.485225
	4.479749
	4.472017
	4.465897
	4.460098
	4.450756
	4.442703
	4.435615
	4.429495
	4.422085
	4.416287
	4.410811
	4.402435
	4.393737
	4.387938
	4.379885
	4.370543
	4.360879
	4.351859
	4.342194
	4.330597
	4.321900
	4.315457
	4.306437
	4.295484
	4.285498
	4.276156
	4.265203
	4.256183
	4.245230
	4.233955
	4.221392
	4.208506
	4.198197
	4.187567
	4.175648
	4.166628
	4.155031
	4.140856
	4.128937
	4.116052
	4.104777
	4.089958
	4.075784
	4.062899
	4.047758
	4.034550
	4.021987
	4.011356
	3.997826
	3.983008
	3.970444
	3.956915
	3.940486
	3.926311
	3.911815
	3.896352
	3.877668
	3.862850
	3.848032
	3.832569
	3.817106
	3.803254
	3.788436
	3.772329
	3.754933
	3.737538
	3.721753
	3.704680
	3.685029
	3.667956
	3.651849
	3.633487
	3.619313
	3.603206
	3.585489
	3.567771
	3.548121
	3.529115
	3.511075
	3.488525
	3.471452
	3.452124
	3.434728
	3.417655
	3.398649
	3.380609
	3.359670
	3.340664
	3.320048
	3.299431
	3.277203
	3.257875
	3.237903
	3.220185
	3.199891
	3.181529
	3.161234
	3.139651
	3.117102
	3.096163
	3.075546
	3.051708
	3.029481
	3.007575
	2.986959
	2.964731
	2.943793
	2.923820
	2.900949
	2.879043
	2.857138
	2.834911
	2.811073
	2.786913
	2.764041
	2.741814
	2.717654
	2.696071
	2.673521
	2.650972
	2.627134
	2.602330
	2.581713
	2.554976
	2.530494
	2.506012
	2.480885
	2.456725
	2.432243
	2.409049
	2.387144
	2.361696
	2.336569
	2.313054
	2.289538
	2.264734
	2.237030
	2.211904
	2.185811
	2.159074
	2.133948
	2.110754
	2.086916
	2.059857
	2.033764
	2.008960
	1.983512
	1.957097
	1.929716
	1.903623
	1.875920
	1.848861
	1.822768
	1.798930
	1.773160
	1.747711
	1.721619
	1.694237
	1.666534
	1.640119
	1.611772
	1.582780
	1.554755
	1.527696
	1.502569
	1.476799
	1.449096
	1.422037
	1.395622
	1.367919
	1.339249
	1.310902
	1.283843
	1.252918
	1.224893
	1.199445
	1.173674
	1.145971
	1.116657
	1.090242
	1.062861
	1.032903
	1.006167
	0.976853
	0.948505
	0.917581
	0.890200
	0.862497
	0.834472
	0.807413
	0.780998
	0.752007
	0.723015
	0.695634
	0.667931
	0.639261
	0.609948
	0.580956
	0.550032
	0.521040
	0.492049
	0.463701
	0.435354
	0.406685
	0.380270
	0.349990
	0.321965
	0.294262
	0.265592
	0.235312
	0.206321
	0.177329
	0.147694
	0.117736
	0.090999
	0.062974
	0.033983
	0.006602
	-0.022068
	-0.052670
	-0.081983
	-0.110331
	-0.139000
	-0.169924
	-0.199238
	-0.228229
	-0.255932
	-0.282991
	-0.311338
	-0.338719
	-0.368999
	-0.397668
	-0.425371
	-0.455007
	-0.485287
	-0.515244
	-0.543269
	-0.572261
	-0.598997
	-0.627022
	-0.655369
	-0.684361
	-0.711419
	-0.740411
	-0.769724
	-0.799038
	-0.828351
	-0.856698
	-0.886012
	-0.913071
	-0.939485
	-0.967188
	-0.994569
	-1.022271
	-1.048686
	-1.077999
	-1.105702
	-1.135982
	-1.164651
	-1.192676
	-1.221023
	-1.246793
	-1.272885
	-1.300588
	-1.326358
	-1.355994
	-1.383375
	-1.410111
	-1.437814
	-1.466161
	-1.495797
	-1.521889
	-1.550236
	-1.577939
	-1.602742
	-1.629157
	-1.655571
	-1.681985
	-1.709044
	-1.735136
	-1.761872
	-1.789575
	-1.815023
	-1.843048
	-1.870429
	-1.897487
	-1.921647
	-1.948705
	-1.976086
	-1.998635
	-2.022150
	-2.049853
	-2.074978
	-2.100426
	-2.125230
	-2.151322
	-2.177414
	-2.204151
	-2.230243
	-2.256979
	-2.282749
	-2.305942
	-2.330746
	-2.354905
	-2.377454
	-2.401291
	-2.425773
	-2.450899
	-2.475702
	-2.500506
	-2.526276
	-2.551724
	-2.575239
	-2.598110
	-2.621303
	-2.643530
	-2.665756
	-2.689594
	-2.713753
	-2.736946
	-2.759817
	-2.781721
	-2.807169
	-2.831007
	-2.852589
	-2.876104
	-2.896720
	-2.916692
	-2.938919
	-2.959857
	-2.983372
	-3.004310
	-3.026537
	-3.048441
	-3.072923
	-3.094183
	-3.113511
	-3.133805
	-3.153776
	-3.175359
	-3.195653
	-3.216269
	-3.237207
	-3.258145
	-3.279083
	-3.300343
	-3.320637
	-3.339643
	-3.357682
	-3.376365
	-3.395693
	-3.414376
	-3.432093
	-3.452065
	-3.471714
	-3.490398
	-3.509081
	-3.530341
	-3.549024
	-3.565453
	-3.583170
	-3.600565
	-3.617637
	-3.634066
	-3.652105
	-3.671110
	-3.687216
	-3.704289
	-3.723294
	-3.740045
	-3.757118
	-3.773224
	-3.789330
	-3.803826
	-3.817677
	-3.834428
	-3.850212
	-3.865996
	-3.882425
	-3.899497
	-3.915926
	-3.930099
	-3.942984
	-3.958124
	-3.971976
	-3.985827
	-3.998712
	-4.013530
	-4.026737
	-4.040588
	-4.056051
	-4.070546
	-4.083753
	-4.097283
	-4.110168
	-4.121764
	-4.132717
	-4.145602
	-4.156554
	-4.168150
	-4.179747
	-4.191988
	-4.205839
	-4.217758
	-4.230321
	-4.240951
	-4.248682
	-4.258024
	-4.269620
	-4.279928
	-4.289270
	-4.299256
	-4.310530
	-4.321483
	-4.331791
	-4.341454
	-4.348863
	-4.356916
	-4.365936
	-4.373667
	-4.383331
	-4.391706
	-4.400726
	-4.409745
	-4.418443
	-4.426174
	-4.431972
	-4.439703
	-4.444535
	-4.449045
	-4.456776
	-4.461930
	-4.469983
	-4.476103
	-4.481902
	-4.488988
	-4.496075
	-4.502195
	-4.507027
	-4.512504
	-4.516691
	-4.518624
	-4.524100
	-4.529576
	-4.532798
	-4.536985
	-4.542139
	-4.546649
	-4.550514
	-4.554380
	-4.558246
	-4.558568
	-4.560500
	-4.561789
	-4.562433
	-4.566943
	-4.568231
	-4.569520
	-4.573708
	-4.576929
	-4.578539
	-4.578862
	-4.579506
	-4.577251
	-4.579184
	-4.580472
	-4.579828
	-4.580150
	-4.581761
	-4.581761
	-4.582727
	-4.581439
	-4.578862
	-4.574996
	-4.574674
	-4.574352
	-4.571453
	-4.572419
	-4.568876
	-4.567909
	-4.566943
	-4.564688
	-4.559534
	-4.556313
	-4.554058
	-4.549226
	-4.545683
	-4.543106
	-4.538918
	-4.536985
	-4.534408
	-4.529576
	-4.524744
	-4.518302
	-4.511215
	-4.505095
	-4.502195
	-4.498008
	-4.491243
	-4.488666
	-4.483512
	-4.476103
	-4.471271
	-4.462896
	-4.454521
	-4.449367
	-4.440347
	-4.431972
	-4.426818
	-4.420053
	-4.412322
	-4.406524
	-4.399437
	-4.387518
	-4.378499
	-4.369479
	-4.359171
	-4.352729
	-4.344676
	-4.337911
	-4.329214
	-4.320194
	-4.307631
	-4.296035
	-4.287337
	-4.276707
	-4.264788
	-4.255447
	-4.245783
	-4.236119
	-4.226133
	-4.214537
	-4.200041
	-4.187478
	-4.176848
	-4.163963
	-4.150433
	-4.140770
	-4.129817
	-4.118221
	-4.105658
	-4.091162
	-4.076667
	-4.063459
	-4.052185
	-4.037367
	-4.023838
	-4.012241
	-3.997746
	-3.983572
	-3.969399
	-3.954259
	-3.939119
	-3.922690
	-3.907873
	-3.892733
	-3.877271
	-3.864708
	-3.850534
	-3.835072
	-3.817355
	-3.800927
	-3.784498
	-3.766781
	-3.750675
	-3.735535
	-3.718140
	-3.702678
	-3.685606
	-3.670466
	-3.651460
	-3.632455
	-3.616027
	-3.596377
	-3.578016
	-3.559332
	-3.542260
	-3.526154
	-3.509081
	-3.490720
	-3.471392
	-3.451098
	-3.431126
	-3.411799
	-3.393760
	-3.373466
	-3.354461
	-3.337388
	-3.317416
	-3.297444
	-3.275540
	-3.254280
	-3.235274
	-3.213047
	-3.192431
	-3.172782
	-3.153776
	-3.134449
	-3.112222
	-3.091928
	-3.070024
	-3.045864
	-3.023638
	-3.002055
	-2.981117
	-2.958246
	-2.936664
	-2.915726
	-2.894143
	-2.871917
	-2.848079
	-2.824886
	-2.801693
	-2.779144
	-2.756274
	-2.732436
	-2.710854
	-2.689916
	-2.665112
	-2.643208
	-2.618404
	-2.594245
	-2.568797
	-2.544315
	-2.522088
	-2.497929
	-2.473125
	-2.450899
	-2.427384
	-2.403868
	-2.376488
	-2.350396
	-2.326236
	-2.299500
	-2.275018
	-2.251503
	-2.226055
	-2.202218
	-2.177092
	-2.152933
	-2.125552
	-2.096883
	-2.072723
	-2.046953
	-2.022794
	-1.996702
	-1.972542
	-1.948383
	-1.920358
	-1.892011
	-1.866241
	-1.839182
	-1.812446
	-1.786032
	-1.761228
	-1.735780
	-1.708077
	-1.681341
	-1.652994
	-1.625613
	-1.596300
	-1.569563
	-1.544115
	-1.516413
	-1.491931
	-1.466483
	-1.438780
	-1.410433
	-1.379187
	-1.353739
	-1.326036
	-1.298333
	-1.269020
	-1.243250
	-1.216836
	-1.189455
	-1.160786
	-1.132439
	-1.103125
	-1.075422
	-1.047719
	-1.020016
	-0.991992
	-0.965255
	-0.939163
	-0.909849
	-0.879892
	-0.852511
	-0.822875
	-0.793884
	-0.765215
	-0.737834
	-0.709487
	-0.681140
	-0.653437
	-0.625412
	-0.595454
	-0.565818
	-0.537471
	-0.510412
	-0.479166
	-0.450497
	-0.423438
	-0.395413
	-0.368032
	-0.340652
	-0.310372
	-0.279769
	-0.249812
	-0.221464
	-0.191829
	-0.162515
	-0.134490
	-0.107754
	-0.078762
	-0.047838
	-0.019168
	0.010789
	0.040747
	0.066840
	0.094220
	0.124178
	0.150271
	0.178940
	0.208576
	0.241111
	0.270747
	0.297805
	0.327441
	0.355788
	0.381559
	0.409262
	0.438575
	0.468533
	0.498813
	0.529416
	0.558729
	0.584822
	0.614135
	0.641194
	0.667609
	0.694990
	0.726236
	0.756839
	0.783253
	0.812567
	0.842847
	0.869262
	0.895998
	0.923379
	0.950760
	0.978786
	1.007455
	1.039346
	1.067049
	1.094752
	1.123744
	1.150803
	1.176573
	1.202022
	1.230369
	1.261294
	1.287708
	1.316700
	1.344081
	1.371140
	1.398843
	1.425258
	1.451995
	1.479376
	1.506435
	1.535749
	1.563452
	1.589867
	1.616604
	1.643663
	1.667823
	1.693593
	1.721619
	1.749322
	1.775737
	1.803118
	1.830499
	1.856270
	1.880429
	1.906844
	1.933903
	1.958063
	1.984156
	2.011215
	2.039241
	2.065011
	2.091104
	2.117197
	2.139746
	2.163584
	2.188710
	2.215125
	2.242829
	2.266344
	2.293403
	2.319496
	2.340435
	2.363306
	2.387788
	2.410338
	2.437397
	2.463168
	2.488294
	2.511810
	2.535970
	2.561096
	2.583646
	2.605229
	2.629389
	2.651294
	2.675132
	2.699292
	2.724419
	2.747934
	2.770162
	2.793678
	2.815905
	2.836522
	2.857782
	2.879043
	2.903526
	2.925109
	2.950235
	2.973429
	2.993724
	3.015629
	3.037534
	3.059117
	3.078445
	3.099706
	3.121611
	3.141262
	3.164456
	3.186683
	3.206011
	3.226950
	3.248533
	3.266895
	3.283968
	3.303296
	3.323591
	3.343886
	3.364180
	3.385119
	3.405092
	3.423131
	3.442782
	3.462110
	3.479828
	3.496579
	3.514618
	3.531370
	3.551020
	3.571959
	3.590643
	3.608683
	3.626078
	3.644440
	3.661191
	3.676332
	3.693083
	3.709190
	3.725297
	3.742048
	3.760732
	3.778772
	3.794557
	3.811308
	3.828059
	3.840945
	3.855119
	3.869293
	3.885078
	3.898930
	3.916325
	3.932754
	3.946606
	3.961102
	3.976565
	3.990417
	4.002336
	4.014578
	4.027785
	4.041315
	4.055812
	4.072885
	4.085126
	4.098978
	4.111864
	4.124749
	4.135058
	4.143434
	4.156964
	4.169849
	4.181768
	4.195942
	4.207862
	4.217526
	4.229767
	4.241042
	4.251029
	4.258116
	4.267780
	4.280021
	4.289363
	4.300960
	4.312880
	4.322222
	4.331242
	4.342194
	4.351537
	4.359268
	4.366999
	4.374409
	4.381174
	4.388905
	4.396958
	4.407267
	4.414676
	4.422730
	4.431750
	4.438837
	4.445924
	4.452045
	4.457521
	4.461709
	4.468152
	4.476527
	4.483292
	4.489413
	4.496178
	4.501010
	4.506164
	4.511641
	4.514540
	4.517439
	4.520339
	4.525493
	4.530325
	4.536124
	4.540956
	4.545788
	4.549331
	4.552231
	4.553197
	4.553841
	4.556096
	4.559318
	4.564472
	4.568016
	4.569626
	4.571881
	4.574781
	4.573814
	4.573170
	4.574459
	4.574459
	4.573814
	4.575747
	4.578969
	4.578969
	4.578646
	4.580579
	4.580257
	4.578002
	4.576069
	4.575103
	4.572526
	4.569949
	4.570915
	4.571881
	4.569626
	4.567371
	4.566405
	4.564150
	4.560606
	4.555452
	4.551586
	4.547721
	4.544177
	4.543533
	4.542244
	4.537412
	4.533869
	4.530003
	4.525815
	4.518084
	4.512285
	4.508419
	4.505198
	4.500044
	4.497467
	4.492635
	4.484903
	4.478138
	4.472340
	4.466219
	4.455266
	4.449145
	4.444635
	4.438515
	4.432394
	4.426273
	4.419186
	4.410811
	4.403401
	4.394381
	4.384717
	4.375375
	4.366677
	4.360879
	4.352503
	4.343805
	4.334785
	4.326732
	4.316745
	4.304826
	4.294840
	4.282598
	4.272612
	4.265203
	4.255539
	4.245874
	4.233955
	4.223002
	4.211405
	4.200775
	4.188211
	4.177258
	4.162118
	4.149232
	4.139568
	4.129259
	4.116696
	4.104777
	4.092858
	4.080616
	4.066120
	4.052590
	4.037127
	4.021665
	4.008457
	3.994605
	3.980431
	3.967223
	3.954660
	3.942096
	3.927600
	3.912137
	3.897963
	3.881212
	3.866071
	3.849320
	3.831602
	3.814851
	3.800355
	3.786503
	3.770396
	3.754289
	3.739793
	3.722075
	3.705324
	3.688573
	3.671177
	3.651527
	3.633487
	3.617380
	3.598052
	3.582912
	3.566483
	3.548765
	3.531370
	3.510753
	3.494324
	3.475962
	3.455023
	3.436017
	3.416367
	3.395750
	3.377388
	3.360637
	3.341309
	3.320692
	3.302330
	3.280425
	3.261097
	3.241124
	3.219219
	3.197636
	3.177985
	3.158979
	3.139329
	3.117424
	3.096485
	3.076835
	3.054285
	3.033668
	3.010475
	2.988247
	2.963443
	2.942182
	2.921565
	2.897083
	2.875822
	2.855850
	2.833944
	2.812684
	2.790134
	2.767585
	2.743425
	2.720231
	2.697359
	2.671589
	2.647751
	2.623913
	2.601363
	2.577525
	2.554010
	2.532749
	2.508266
	2.483784
	2.460913
	2.436109
	2.410982
	2.385211
	2.359441
	2.334314
	2.308544
	2.285994
	2.263445
	2.238319
	2.213837
	2.188710
	2.162617
	2.136847
	2.110754
	2.085306
	2.056958
	2.030865
	2.007350
	1.982223
	1.956775
	1.931648
	1.906522
	1.878497
	1.852726
	1.827600
	1.799252
	1.772837
	1.747711
	1.716464
	1.689728
	1.663635
	1.637220
	1.611127
	1.585357
	1.559909
	1.530595
	1.504180
	1.476799
	1.450384
	1.421714
	1.392723
	1.366952
	1.338283
	1.308969
	1.283198
	1.258072
	1.228758
	1.201699
	1.174963
	1.146293
	1.118268
	1.090887
	1.063506
	1.034192
	1.004878
	0.974920
	0.946573
	0.917581
	0.890200
	0.864430
	0.835438
	0.808057
	0.781642
	0.752329
	0.723015
	0.694345
	0.667609
	0.637329
	0.608659
	0.580312
	0.549710
	0.520718
	0.492693
	0.464346
	0.436643
	0.407651
	0.380914
	0.351923
	0.322609
	0.295550
	0.264948
	0.235957
	0.207287
	0.177974
	0.148338
	0.118380
	0.090355
	0.063618
	0.033983
	0.005957
	-0.022390
	-0.050737
	-0.080695
	-0.108076
	-0.137067
	-0.168313
	-0.198271
	-0.228229
	-0.256254
	-0.285568
	-0.313271
	-0.340007
	-0.368999
	-0.397346
	-0.424405
	-0.454362
	-0.482709
	-0.510735
	-0.541337
	-0.571294
	-0.600286
	-0.628955
	-0.656014
	-0.684683
	-0.710453
	-0.739767
	-0.769402
	-0.797427
	-0.826096
	-0.853799
	-0.883757
	-0.914359
	-0.941418
	-0.969121
	-0.996823
	-1.023238
	-1.049652
	-1.077033
	-1.107313
	-1.134693
	-1.162074
	-1.190421
	-1.220379
	-1.248404
	-1.276107
	-1.304776
	-1.330868
	-1.355994
	-1.382408
	-1.410755
	-1.439425
	-1.465517
	-1.493220
	-1.523499
	-1.550236
	-1.576650
	-1.603387
	-1.631089
	-1.656859
	-1.683274
	-1.709688
	-1.736747
	-1.762194
	-1.787642
	-1.814057
	-1.841759
	-1.866563
	-1.894910
	-1.922291
	-1.948061
	-1.975442
	-2.000567
	-2.027626
	-2.050819
	-2.075945
	-2.102359
	-2.126196
	-2.151000
	-2.179025
	-2.203184
	-2.229276
	-2.254724
	-2.281783
	-2.307875
	-2.331068
	-2.355550
	-2.379709
	-2.402258
	-2.425129
	-2.449288
	-2.476024
	-2.499218
	-2.523377
	-2.549147
	-2.573951
	-2.597466
	-2.621947
	-2.646107
	-2.668655
	-2.688949
	-2.712787
	-2.736302
	-2.758851
	-2.781721
	-2.804915
	-2.828430
	-2.849690
	-2.872239
	-2.896398
	-2.918625
	-2.940851
	-2.963400
	-2.986271
	-3.008176
	-3.027825
	-3.048119
	-3.068735
	-3.090318
	-3.111578
	-3.131872
	-3.155065
	-3.177292
	-3.198552
	-3.220134
	-3.240750
	-3.259111
	-3.277473
	-3.296800
	-3.316772
	-3.334811
	-3.354783
	-3.374432
	-3.395371
	-3.415342
	-3.435314
	-3.455930
	-3.475258
	-3.491364
	-3.510047
	-3.527764
	-3.546447
	-3.563198
	-3.581881
	-3.599920
	-3.616993
	-3.635998
	-3.655970
	-3.674331
	-3.689793
	-3.707510
	-3.723939
	-3.738434
	-3.754219
	-3.770969
	-3.787075
	-3.803182
	-3.819288
	-3.835716
	-3.852145
	-3.867607
	-3.884680
	-3.900142
	-3.914959
	-3.929777
	-3.944917
	-3.958768
	-3.971009
	-3.986471
	-4.000001
	-4.012241
	-4.026415
	-4.040266
	-4.053796
	-4.067647
	-4.082465
	-4.095350
	-4.108557
	-4.121764
	-4.133683
	-4.144957
	-4.155910
	-4.168473
	-4.182002
	-4.190699
	-4.202296
	-4.216147
	-4.227100
	-4.238696
	-4.250937
	-4.261567
	-4.271553
	-4.281217
	-4.291525
	-4.299900
	-4.308920
	-4.320194
	-4.327925
	-4.339199
	-4.348219
	-4.355628
	-4.365292
	-4.376566
	-4.385264
	-4.393317
	-4.402014
	-4.410389
	-4.417798
	-4.424563
	-4.431328
	-4.436160
	-4.444213
	-4.451299
	-4.458064
	-4.464507
	-4.469983
	-4.476747
	-4.484156
	-4.490599
	-4.497364
	-4.504773
	-4.509604
	-4.512826
	-4.516691
	-4.520235
	-4.522489
	-4.528932
	-4.533120
	-4.536985
	-4.542139
	-4.546971
	-4.550514
	-4.555346
	-4.559212
	-4.558568
	-4.561467
	-4.563722
	-4.563722
	-4.568231
	-4.569520
	-4.570164
	-4.573708
	-4.574996
	-4.577251
	-4.579828
	-4.581439
	-4.581439
	-4.581117
	-4.582405
	-4.581117
	-4.580472
	-4.580794
	-4.579184
	-4.580150
	-4.579184
	-4.577573
	-4.576607
	-4.575962
	-4.574996
	-4.574030
	-4.574030
	-4.572097
	-4.568554
	-4.566299
	-4.561467
	-4.558890
	-4.556313
	-4.553091
	-4.548904
	-4.546327
	-4.544716
	-4.541173
	-4.538274
	-4.535697
	-4.530221
	-4.525066
	-4.519268
	-4.511537
	-4.508316
	-4.503162
	-4.497364
	-4.491243
	-4.486411
	-4.481579
	-4.474493
	-4.469661
	-4.464829
	-4.457742
	-4.452266
	-4.441314
	-4.433260
	-4.427462
	-4.420053
	-4.412644
	-4.405880
	-4.396216
	-4.386874
	-4.379143
	-4.373345
	-4.363681
	-4.355306
	-4.348219
	-4.337589
	-4.327281
	-4.316651
	-4.307309
	-4.296357
	-4.287337
	-4.277673
	-4.266077
	-4.257702
	-4.248682
	-4.237085
	-4.225489
	-4.214214
	-4.201974
	-4.188767
	-4.177814
	-4.166218
	-4.152688
	-4.140770
	-4.130784
	-4.118865
	-4.106302
	-4.095028
	-4.082465
	-4.066036
	-4.052185
	-4.038011
	-4.023516
	-4.008698
	-3.994847
	-3.980995
	-3.968110
	-3.956514
	-3.944273
	-3.927522
	-3.911094
	-3.896598
	-3.879848
	-3.863419
	-3.849246
	-3.832495
	-3.817355
	-3.800927
	-3.788042
	-3.772580
	-3.756796
	-3.739723
	-3.720395
	-3.701390
	-3.683673
	-3.667245
	-3.650816
	-3.631166
	-3.616027
	-3.599920
	-3.581881
	-3.564486
	-3.545159
	-3.526798
	-3.506504
	-3.488787
	-3.470748
	-3.449810
	-3.433703
	-3.416953
	-3.397303
	-3.377331
	-3.358004
	-3.338032
	-3.315805
	-3.293901
	-3.275218
	-3.255246
	-3.232375
	-3.214658
	-3.195008
	-3.176003
	-3.154743
	-3.136059
	-3.113511
	-3.089996
	-3.068091
	-3.045864
	-3.025893
	-3.003666
	-2.980795
	-2.962112
	-2.940851
	-2.918947
	-2.896076
	-2.872561
	-2.850012
	-2.825208
	-2.801371
	-2.780433
	-2.757240
	-2.734691
	-2.712142
	-2.691204
	-2.668333
	-2.642885
	-2.619692
	-2.594567
	-2.570085
	-2.545604
	-2.522411
	-2.499218
	-2.474414
	-2.450577
	-2.428028
	-2.404191
	-2.377454
	-2.352973
	-2.330102
	-2.302399
	-2.275018
	-2.250859
	-2.227022
	-2.202862
	-2.176126
	-2.151966
	-2.128773
	-2.103648
	-2.078522
	-2.052107
	-2.024083
	-1.996702
	-1.970932
	-1.946128
	-1.919714
	-1.891367
	-1.868174
	-1.842082
	-1.814379
	-1.788287
	-1.763161
	-1.734814
	-1.706467
	-1.680697
	-1.652994
	-1.625935
	-1.599521
	-1.573429
	-1.547015
	-1.520278
	-1.492253
	-1.466805
	-1.439425
	-1.411722
	-1.383053
	-1.355028
	-1.327003
	-1.298011
	-1.271597
	-1.242928
	-1.214903
	-1.187200
	-1.161108
	-1.135660
	-1.107635
	-1.079288
	-1.053518
	-1.023560
	-0.994246
	-0.966544
	-0.936264
	-0.907594
	-0.877637
	-0.851867
	-0.823197
	-0.793562
	-0.767792
	-0.740411
	-0.712386
	-0.684039
	-0.655047
	-0.625090
	-0.595454
	-0.566785
	-0.538437
	-0.509446
	-0.479810
	-0.452107
	-0.423438
	-0.394125
	-0.368354
	-0.340329
	-0.311016
	-0.282347
	-0.253677
	-0.224041
	-0.192795
	-0.162837
	-0.135456
	-0.104532
	-0.075541
	-0.048804
	-0.021101
	0.006602
	0.034627
	0.062008
	0.092288
	0.123856
	0.152526
	0.180873
	0.209542
	0.238856
	0.267847
	0.296839
	0.325508
	0.352245
	0.378337
	0.407973
	0.438253
	0.468533
	0.497847
	0.526839
	0.555186
	0.583211
	0.610592
	0.640228
	0.666642
	0.693057
	0.723659
	0.753617
	0.781642
	0.811600
	0.841236
	0.867973
	0.897287
	0.923701
	0.951082
	0.977819
	1.003912
	1.033548
	1.064472
	1.092175
	1.120523
	1.150159
	1.178184
	1.204599
	1.232946
	1.260971
	1.285131
	1.311868
	1.338927
	1.369207
	1.397233
	1.424936
	1.455216
	1.480342
	1.507401
	1.536071
	1.559909
	1.586001
	1.612094
	1.640441
	1.667500
	1.694559
	1.723873
	1.750932
	1.777025
	1.804406
	1.830499
	1.854337
	1.878819
	1.905556
	1.930360
	1.956453
	1.985445
	2.013148
	2.037952
	2.063723
	2.090782
	2.114942
	2.138135
	2.162940
	2.189032
	2.212226
	2.239285
	2.266344
	2.290182
	2.314986
	2.340757
	2.366850
	2.387788
	2.410982
	2.436753
	2.459624
	2.486361
	2.511488
	2.537259
	2.560452
	2.583968
	2.608128
	2.629711
	2.651938
	2.674166
	2.696715
	2.719587
	2.743425
	2.768873
	2.793033
	2.813972
	2.838776
	2.859071
	2.881620
	2.901271
	2.924142
	2.945081
	2.966986
	2.991146
	3.014340
	3.034957
	3.058151
	3.081022
	3.100673
	3.120967
	3.141584
	3.161556
	3.178952
	3.200535
	3.222762
	3.243379
	3.265284
	3.286867
	3.306196
	3.324235
	3.345496
	3.364825
	3.382220
	3.400904
	3.419910
	3.438594
	3.458889
	3.480150
	3.500122
	3.517840
	3.536202
	3.553919
	3.570670
	3.587422
	3.605139
	3.621568
	3.640574
	3.659258
	3.676010
	3.694371
	3.712411
	3.728840
	3.745591
	3.760088
	3.774584
	3.791013
	3.806798
	3.824515
	3.840945
	3.857051
	3.872836
	3.886366
	3.901507
	3.918258
	3.929533
	3.943385
	3.959492
	3.973666
	3.989451
	4.005558
	4.018765
	4.031329
	4.044859
	4.057744
	4.067409
	4.082549
	4.096401
	4.107998
	4.122494
	4.135702
	4.148588
	4.161473
	4.172748
	4.184345
	4.195942
	4.206251
	4.216559
	4.225579
	4.235888
	4.249740
	4.259726
	4.271646
	4.282276
	4.292263
	4.301605
	4.313202
	4.322866
	4.329631
	4.338007
	4.347027
	4.357013
	4.366355
	4.376986
	4.384717
	4.391804
	4.401146
	4.407589
	4.414032
	4.422085
	4.428850
	4.434971
	4.444313
	4.451400
	4.459132
	4.463964
	4.472340
	4.478782
	4.483615
	4.490057
	4.494567
	4.497789
	4.501332
	4.507131
	4.512285
	4.517439
	4.523882
	4.529681
	4.532580
	4.537090
	4.541600
	4.544499
	4.548687
	4.550620
	4.552553
	4.553519
	4.557707
	4.563184
	4.565439
	4.568982
	4.569304
	4.571559
	4.572204
	4.573492
	4.573814
	4.571881
	4.574459
	4.576714
	4.577680
	4.579613
	4.579613
	4.581224
	4.579935
	4.578969
	4.578002
	4.574459
	4.572204
	4.572848
	4.571881
	4.572526
	4.570915
	4.571237
	4.568016
	4.566083
	4.562539
	4.559640
	4.553841
	4.550298
	4.548687
	4.546754
	4.544499
	4.541922
	4.539023
	4.534835
	4.530003
	4.526782
	4.520983
	4.514540
	4.509064
	4.503265
	4.497467
	4.494567
	4.490702
	4.483615
	4.479105
	4.473950
	4.467830
	4.459776
	4.453011
	4.445602
	4.436582
	4.429173
	4.423696
	4.416609
	4.410166
	4.404046
	4.398247
	4.387938
	4.379563
	4.370221
	4.358946
	4.350570
	4.342194
	4.334141
	4.325121
	4.316101
	4.308692
	4.297095
	4.286464
	4.277444
	4.263592
	4.252961
	4.243619
	4.231378
	4.219459
	4.209472
	4.201741
	4.190466
	4.178547
	4.167916
	4.154386
	4.143111
	4.131514
	4.118951
	4.103488
	4.089314
	4.077717
	4.063221
	4.050657
	4.040349
	4.027785
	4.012323
	3.998471
	3.984941
	3.971411
	3.954338
	3.940163
	3.925023
	3.909238
	3.896352
	3.882823
	3.867682
	3.850931
	3.836112
	3.821294
	3.802932
	3.786825
	3.770396
	3.751712
	3.734961
	3.720143
	3.704680
	3.688573
	3.672466
	3.655715
	3.638642
	3.619313
	3.603206
	3.584844
	3.563583
	3.545866
	3.529759
	3.511075
	3.494002
	3.477573
	3.458244
	3.438916
	3.419910
	3.399938
	3.378676
	3.358060
	3.340342
	3.320048
	3.301364
	3.283324
	3.262385
	3.243057
	3.222762
	3.202790
	3.181207
	3.158335
	3.137718
	3.115491
	3.095196
	3.076190
	3.054607
	3.033668
	3.012407
	2.990824
	2.968597
	2.945725
	2.923176
	2.898371
	2.875178
	2.854883
	2.833944
	2.812684
	2.791423
	2.768873
	2.745035
	2.720875
	2.697681
	2.671911
	2.648717
	2.627456
	2.604262
	2.580425
	2.556264
	2.533071
	2.508589
	2.485073
	2.461557
	2.434820
	2.409694
	2.384567
	2.361051
	2.337536
	2.314020
	2.290182
	2.264734
	2.238963
	2.215769
	2.188388
	2.162295
	2.135880
	2.109788
	2.083051
	2.058246
	2.034731
	2.009604
	1.984478
	1.959352
	1.932937
	1.905556
	1.879785
	1.853048
	1.824701
	1.797642
	1.773160
	1.747389
	1.721296
	1.695526
	1.668467
	1.640441
	1.614027
	1.586646
	1.557332
	1.528340
	1.502569
	1.475832
	1.449418
	1.423969
	1.395622
	1.368563
	1.341504
	1.315411
	1.284487
	1.255495
	1.228758
	1.198800
	1.171741
	1.146615
	1.118590
	1.089920
	1.063184
	1.037413
	1.008099
	0.978786
	0.952693
	0.920802
	0.891489
	0.864108
	0.836082
	0.809346
	0.781642
	0.754906
	0.725592
	0.696600
	0.668575
	0.637007
	0.608337
	0.580312
	0.549710
	0.523617
	0.497847
	0.468855
	0.439542
	0.411517
	0.381881
	0.350956
	0.323253
	0.293618
	0.263660
	0.235957
	0.207609
	0.179906
	0.152848
	0.124823
	0.094865
	0.065229
	0.037526
	0.006924
	-0.024323
	-0.052670
	-0.082305
	-0.110331
	-0.137067
	-0.165092
	-0.195050
	-0.223719
	-0.250778
	-0.280092
	-0.310694
	-0.339041
	-0.369643
	-0.398956
	-0.425371
	-0.451141
	-0.480132
	-0.510412
	-0.537471
	-0.566140
	-0.597709
	-0.626378
	-0.656336
	-0.686616
	-0.713030
	-0.739122
	-0.768114
	-0.796139
	-0.823519
	-0.851544
	-0.880214
	-0.910494
	-0.940451
	-0.968476
	-0.996179
	-1.021627
	-1.047719
	-1.076066
	-1.104091
	-1.133083
	-1.160463
	-1.188166
	-1.216836
	-1.245827
	-1.275785
	-1.304776
	-1.328935
	-1.354061
	-1.383375
	-1.410433
	-1.436203
	-1.463906
	-1.492897
	-1.520278
	-1.548625
	-1.576650
	-1.602098
	-1.629157
	-1.654282
	-1.681341
	-1.708077
	-1.734170
	-1.760262
	-1.786998
	-1.815989
	-1.841437
	-1.869784
	-1.895232
	-1.918747
	-1.946450
	-1.971576
	-1.996702
	-2.023760
	-2.049208
	-2.076589
	-2.102037
	-2.128129
	-2.153899
	-2.179025
	-2.202218
	-2.228632
	-2.253436
	-2.277595
	-2.302399
	-2.328169
	-2.352328
	-2.377132
	-2.403224
	-2.429638
	-2.452831
	-2.475380
	-2.499218
	-2.524021
	-2.545926
	-2.568474
	-2.593600
	-2.617438
	-2.640308
	-2.665756
	-2.689594
	-2.713753
	-2.738235
	-2.760139
	-2.782044
	-2.803948
	-2.824886
	-2.849690
	-2.871594
	-2.892533
	-2.916692
	-2.939563
	-2.964044
	-2.984660
	-3.004954
	-3.026215
	-3.046509
	-3.067125
	-3.089673
	-3.110934
	-3.131872
	-3.152166
	-3.177292
	-3.198552
	-3.217879
	-3.237529
	-3.256534
	-3.276506
	-3.294223
	-3.314517
	-3.335777
	-3.355749
	-3.376365
	-3.395693
	-3.415987
	-3.433381
	-3.449810
	-3.471392
	-3.489109
	-3.505860
	-3.527442
	-3.547414
	-3.565131
	-3.583492
	-3.600565
	-3.617637
	-3.634710
	-3.652105
	-3.669499
	-3.688827
	-3.705578
	-3.723294
	-3.739401
	-3.753896
	-3.768714
	-3.786753
	-3.800927
	-3.817033
	-3.834750
	-3.852145
	-3.868895
	-3.882747
	-3.897565
	-3.910127
	-3.924623
	-3.941052
	-3.956836
	-3.974553
	-3.988082
	-4.002578
	-4.014818
	-4.026093
	-4.040266
	-4.053474
	-4.066681
	-4.080532
	-4.092773
	-4.107269
	-4.120798
	-4.135938
	-4.147212
	-4.158165
	-4.170083
	-4.178781
	-4.189089
	-4.202296
	-4.213892
	-4.226133
	-4.238696
	-4.251259
	-4.260279
	-4.268010
	-4.279284
	-4.289914
	-4.297645
	-4.308920
	-4.318583
	-4.329536
	-4.341132
	-4.349830
	-4.354984
	-4.364647
	-4.373667
	-4.382364
	-4.390095
	-4.399115
	-4.407168
	-4.416188
	-4.426496
	-4.431650
	-4.436160
	-4.443891
	-4.450655
	-4.456454
	-4.464185
	-4.472238
	-4.479325
	-4.484801
	-4.490277
	-4.493498
	-4.498974
	-4.505739
	-4.510893
	-4.515725
	-4.521201
	-4.526355
	-4.532153
	-4.538274
	-4.539884
	-4.542461
	-4.545360
	-4.548904
	-4.551481
	-4.554058
	-4.557601
	-4.559856
	-4.564366
	-4.567265
	-4.568554
	-4.569520
	-4.570486
	-4.571775
	-4.574996
	-4.575640
	-4.575962
	-4.580472
	-4.581761
	-4.581761
	-4.581439
	-4.580794
	-4.580150
	-4.579506
	-4.579506
	-4.576929
	-4.577573
	-4.576607
	-4.574996
	-4.576929
	-4.576607
	-4.574674
	-4.573708
	-4.570486
	-4.567587
	-4.564688
	-4.562433
	-4.557923
	-4.556635
	-4.555024
	-4.551159
	-4.549548
	-4.545360
	-4.542139
	-4.538274
	-4.532153
	-4.526033
	-4.521201
	-4.517980
	-4.512181
	-4.507672
	-4.504450
	-4.499296
	-4.493820
	-4.489310
	-4.480935
	-4.474170
	-4.468050
	-4.461608
	-4.454843
	-4.448722
	-4.442602
	-4.436160
	-4.429073
	-4.422308
	-4.414255
	-4.404269
	-4.396216
	-4.386552
	-4.377533
	-4.370446
	-4.362070
	-4.353695
	-4.347253
	-4.339199
	-4.328247
	-4.318261
	-4.307953
	-4.297323
	-4.287981
	-4.277673
	-4.267043
	-4.254802
	-4.246749
	-4.237730
	-4.227422
	-4.214859
	-4.202940
	-4.189733
	-4.176526
	-4.165251
	-4.153655
	-4.140770
	-4.128851
	-4.118543
	-4.106624
	-4.094061
	-4.082465
	-4.068291
	-4.052829
	-4.038334
	-4.026093
	-4.012241
	-3.996135
	-3.984539
	-3.969721
	-3.957158
	-3.942984
	-3.929455
	-3.912704
	-3.895632
	-3.880492
	-3.865030
	-3.849246
	-3.833461
	-3.818644
	-3.804792
	-3.789330
	-3.774835
	-3.757118
	-3.737468
	-3.719751
	-3.702356
	-3.686894
	-3.668211
	-3.651460
	-3.635676
	-3.618281
	-3.600242
	-3.583814
	-3.565453
	-3.545159
	-3.525509
	-3.510047
	-3.489753
	-3.469137
	-3.451742
	-3.434348
	-3.416631
	-3.396981
	-3.377976
	-3.357682
	-3.335777
	-3.316128
	-3.296478
	-3.276828
	-3.256857
	-3.236240
	-3.218201
	-3.197908
	-3.176969
	-3.156031
	-3.135093
	-3.113511
	-3.090318
	-3.069057
	-3.047797
	-3.026537
	-3.004632
	-2.985305
	-2.963722
	-2.944073
	-2.920235
	-2.896076
	-2.874171
	-2.850012
	-2.826819
	-2.803626
	-2.780433
	-2.758206
	-2.735335
	-2.712787
	-2.691849
	-2.670266
	-2.645140
	-2.620981
	-2.597466
	-2.571696
	-2.545926
	-2.523377
	-2.500184
	-2.475380
	-2.450254
	-2.429316
	-2.404835
	-2.380998
	-2.356838
	-2.329780
	-2.303687
	-2.276951
	-2.252469
	-2.228632
	-2.202540
	-2.179347
	-2.155832
	-2.130384
	-2.103648
	-2.075623
	-2.050819
	-2.024727
	-1.997346
	-1.972542
	-1.947095
	-1.921325
	-1.896199
	-1.871717
	-1.846269
	-1.816634
	-1.787965
	-1.761228
	-1.734170
	-1.707755
	-1.681663
	-1.656215
	-1.629479
	-1.603709
	-1.576972
	-1.550880
	-1.521889
	-1.491609
	-1.465839
	-1.438458
	-1.410111
	-1.382730
	-1.356960
	-1.331834
	-1.303810
	-1.276429
	-1.249370
	-1.218124
	-1.189777
	-1.161752
	-1.134049
	-1.106346
	-1.077677
	-1.051263
	-1.024204
	-0.996501
	-0.970731
	-0.941740
	-0.911782
	-0.881502
	-0.852511
	-0.825452
	-0.795494
	-0.767792
	-0.741377
	-0.713030
	-0.685005
	-0.656658
	-0.627344
	-0.597709
	-0.567107
	-0.540692
	-0.510412
	-0.481743
	-0.453718
	-0.425049
	-0.396702
	-0.369321
	-0.342262
	-0.312949
	-0.284601
	-0.254966
	-0.225008
	-0.195050
	-0.166703
	-0.135779
	-0.106465
	-0.078762
	-0.050415
	-0.021423
	0.008212
	0.033660
	0.061363
	0.090677
	0.119991
	0.150271
	0.179906
	0.208898
	0.236601
	0.266559
	0.296517
	0.323898
	0.352567
	0.380592
	0.406685
	0.436320
	0.465634
	0.494626
	0.523617
	0.553575
	0.583533
	0.609303
	0.638617
	0.667609
	0.695312
	0.723015
	0.749752
	0.778099
	0.805158
	0.834794
	0.864752
	0.894710
	0.923057
	0.950438
	0.979430
	1.007133
	1.034836
	1.065438
	1.090242
	1.116657
	1.144682
	1.172063
	1.199767
	1.229725
	1.258716
	1.286098
	1.313479
	1.342470
	1.367919
	1.395622
	1.423969
	1.451351
	1.477443
	1.502247
	1.530273
	1.556365
	1.585035
	1.614027
	1.641086
	1.667823
	1.694237
	1.722907
	1.747389
	1.772515
	1.798930
	1.824056
	1.848538
	1.876886
	1.905234
	1.930360
	1.958708
	1.985122
	2.010249
	2.035697
	2.062756
	2.087238
	2.110432
	2.135880
	2.160040
	2.185811
	2.211259
	2.239607
	2.264411
	2.288571
	2.314986
	2.340113
	2.363306
	2.387788
	2.411948
	2.434176
	2.458336
	2.482496
	2.508266
	2.532749
	2.557875
	2.583646
	2.606195
	2.629389
	2.652583
	2.675454
	2.696715
	2.717654
	2.742780
	2.763719
	2.788523
	2.813650
	2.835233
	2.857460
	2.880976
	2.904170
	2.926397
	2.948302
	2.970208
	2.989858
	3.010152
	3.031736
	3.054285
	3.075224
	3.097451
	3.120323
	3.139973
	3.159946
	3.183140
	3.202468
	3.223407
	3.244668
	3.263674
	3.282358
	3.299753
	3.320692
	3.341631
	3.360959
	3.382220
	3.401548
	3.419588
	3.440205
	3.459211
	3.476928
	3.494324
	3.512363
	3.529759
	3.548121
	3.568415
	3.588066
	3.605783
	3.624790
	3.642185
	3.659258
	3.676332
	3.693083
	3.707901
	3.722397
	3.741404
	3.759121
	3.775872
	3.793590
	3.808731
	3.824193
	3.839334
	3.856407
	3.869615
	3.882823
	3.898285
	3.913426
	3.929211
	3.945640
	3.961102
	3.973344
	3.987840
	4.002658
	4.015866
	4.028107
	4.040671
	4.052590
	4.065798
	4.081583
	4.096723
	4.109931
	4.122817
	4.136991
	4.147299
	4.158574
	4.169849
	4.180158
	4.190144
	4.202385
	4.213982
	4.224613
	4.238465
	4.251029
	4.261337
	4.270357
	4.281310
	4.291296
	4.299994
	4.311269
	4.319645
	4.328020
	4.337684
	4.348959
	4.357335
	4.365066
	4.376019
	4.385039
	4.391804
	4.399536
	4.407589
	4.414354
	4.419830
	4.427884
	4.436582
	4.443025
	4.452367
	4.460098
	4.464608
	4.470407
	4.477816
	4.483292
	4.485870
	4.491024
	4.498433
	4.501977
	4.509708
	4.517117
	4.519050
	4.524527
	4.529359
	4.533869
	4.534835
	4.537412
	4.543211
	4.544822
	4.549009
	4.555774
	4.557063
	4.560284
	4.563506
	4.566727
	4.568338
	4.568016
	4.569304
	4.567694
	4.570593
	4.573814
	4.574459
	4.575747
	4.577680
	4.580579
	4.579613
	4.579935
	4.581224
	4.580257
	4.579291
	4.577680
	4.576069
	4.573492
	4.572526
	4.573170
	4.571881
	4.570915
	4.570593
	4.568982
	4.565761
	4.564472
	4.562539
	4.557385
	4.552875
	4.550298
	4.546754
	4.542889
	4.539989
	4.539345
	4.533869
	4.531614
	4.528070
	4.523882
	4.517117
	4.512607
	4.508742
	4.499722
	4.494245
	4.490057
	4.484259
	4.479749
	4.475239
	4.470407
	4.461065
	4.454300
	4.449468
	4.439481
	4.431428
	4.424340
	4.416287
	4.410166
	4.402757
	4.397603
	4.390193
	4.380851
	4.372476
	4.363134
	4.354114
	4.344449
	4.334785
	4.325121
	4.313524
	4.306437
	4.299672
	4.288719
	4.280021
	4.269068
	4.256505
	4.247163
	4.235244
	4.223969
	4.210761
	4.200452
	4.191110
	4.179835
	4.167916
	4.155997
	4.145366
	4.131837
	4.118951
	4.107676
	4.091891
	4.077395
	4.064509
	4.052590
	4.039705
	4.026175
	4.014578
	4.000403
	3.986874
	3.974310
	3.957559
	3.943707
	3.929533
	3.914714
	3.896352
	3.879923
	3.866071
	3.849964
	3.835468
	3.823227
	3.807764
	3.790691
	3.774584
	3.757833
	3.740437
	3.721109
	3.705002
	3.688251
	3.671500
	3.656681
	3.640574
	3.622857
	3.605783
	3.588388
	3.569382
	3.548765
	3.530403
	3.511719
	3.492069
	3.476606
	3.460177
	3.440527
	3.421199
	3.401548
	3.383186
	3.361603
	3.340986
	3.321980
	3.300719
	3.281391
	3.263996
	3.244990
	3.225662
	3.204401
	3.184428
	3.164778
	3.140295
	3.118390
	3.096163
	3.075224
	3.056540
	3.035923
	3.014985
	2.991791
	2.970852
	2.949269
	2.925109
	2.901593
	2.878721
	2.858427
	2.836199
	2.814294
	2.793678
	2.769195
	2.745035
	2.720875
	2.698326
	2.673521
	2.650328
	2.628100
	2.606195
	2.581391
	2.559164
	2.535970
	2.511166
	2.484751
	2.459302
	2.436109
	2.413237
	2.390043
	2.366528
	2.340757
	2.315631
	2.292437
	2.265378
	2.238319
	2.211904
	2.188710
	2.164872
	2.138457
	2.114942
	2.089493
	2.063401
	2.037308
	2.012181
	1.985122
	1.956453
	1.930682
	1.905234
	1.879785
	1.854659
	1.830499
	1.804728
	1.777025
	1.749322
	1.723229
	1.694882
	1.666212
	1.638509
	1.612738
	1.586968
	1.559587
	1.533816
	1.509012
	1.479376
	1.451995
	1.424614
	1.397233
	1.367274
	1.339893
	1.312190
	1.285131
	1.259361
	1.233268
	1.204921
	1.176895
	1.149192
	1.122133
	1.092497
	1.062539
	1.034192
	1.007455
	0.978141
	0.952371
	0.925312
	0.895676
	0.868939
	0.839948
	0.811923
	0.781642
	0.752651
	0.723981
	0.694990
	0.666965
	0.639584
	0.612847
	0.584500
	0.555508
	0.528127
	0.499135
	0.469500
	0.439864
	0.409584
	0.379626
	0.350956
	0.323898
	0.297805
	0.267847
	0.239822
	0.212119
	0.182483
	0.155103
	0.125145
	0.095509
	0.063940
	0.033338
	0.005635
	-0.023034
	-0.049448
	-0.076507
	-0.105177
	-0.135134
	-0.163482
	-0.191829
	-0.222109
	-0.253677
	-0.281058
	-0.310372
	-0.339363
	-0.367066
	-0.394125
	-0.421828
	-0.450819
	-0.477878
	-0.506869
	-0.538437
	-0.568395
	-0.597709
	-0.626056
	-0.654403
	-0.681784
	-0.707876
	-0.738478
	-0.766503
	-0.793562
	-0.822231
	-0.852189
	-0.882791
	-0.910494
	-0.936908
	-0.965577
	-0.991025
	-1.017762
	-1.046431
	-1.074778
	-1.104414
	-1.132116
	-1.163685
	-1.191065
	-1.217158
	-1.243250
	-1.269664
	-1.298978
	-1.324748
	-1.352128
	-1.380798
	-1.408178
	-1.437492
	-1.466483
	-1.494508
	-1.519956
	-1.545404
	-1.573429
	-1.599521
	-1.624003
	-1.652672
	-1.680375
	-1.708722
	-1.737069
	-1.763161
	-1.789575
	-1.813412
	-1.839182
	-1.866241
	-1.892333
	-1.918103
	-1.943551
	-1.971898
	-1.999923
	-2.024727
	-2.050175
	-2.074334
	-2.099782
	-2.124264
	-2.148745
	-2.176126
	-2.200607
	-2.227988
	-2.253758
	-2.280494
	-2.307231
	-2.329135
	-2.351684
	-2.375521
	-2.400647
	-2.425129
	-2.447033
	-2.472803
	-2.497929
	-2.522088
	-2.548181
	-2.572662
	-2.594567
	-2.618404
	-2.639664
	-2.662535
	-2.686372
	-2.709565
	-2.732436
	-2.755629
	-2.782688
	-2.806203
	-2.828108
	-2.849368
	-2.870628
	-2.893177
	-2.916048
	-2.936342
	-2.959213
	-2.982083
	-3.005599
	-3.026537
	-3.047153
	-3.068735
	-3.087741
	-3.109001
	-3.130905
	-3.151844
	-3.173426
	-3.194686
	-3.217879
	-3.240750
	-3.260078
	-3.279405
	-3.296478
	-3.316128
	-3.336099
	-3.354138
	-3.373144
	-3.393438
	-3.414054
	-3.434992
	-3.453031
	-3.471070
	-3.490398
	-3.507470
	-3.526798
	-3.544837
	-3.563842
	-3.581559
	-3.600887
	-3.619892
	-3.635354
	-3.651138
	-3.668533
	-3.686250
	-3.703323
	-3.720717
	-3.739401
	-3.756796
	-3.773868
	-3.786753
	-3.802537
	-3.819288
	-3.835072
	-3.849568
	-3.865996
	-3.883069
	-3.899175
	-3.913027
	-3.929455
	-3.942662
	-3.955225
	-3.970365
	-3.985183
	-3.998068
	-4.011919
	-4.027703
	-4.043810
	-4.057983
	-4.068936
	-4.081176
	-4.092129
	-4.105014
	-4.118543
	-4.131750
	-4.143991
	-4.154943
	-4.169761
	-4.183612
	-4.193921
	-4.205517
	-4.215503
	-4.224845
	-4.235797
	-4.247716
	-4.258668
	-4.268332
	-4.279928
	-4.292813
	-4.303443
	-4.311497
	-4.319872
	-4.328891
	-4.337589
	-4.346608
	-4.356916
	-4.364647
	-4.373023
	-4.384297
	-4.393317
	-4.402658
	-4.410067
	-4.414255
	-4.421342
	-4.430039
	-4.436804
	-4.443891
	-4.453554
	-4.461608
	-4.466762
	-4.471593
	-4.477070
	-4.481579
	-4.488022
	-4.494142
	-4.500907
	-4.507672
	-4.513470
	-4.517013
	-4.519912
	-4.524422
	-4.529576
	-4.533120
	-4.536663
	-4.542139
	-4.547293
	-4.550837
	-4.554058
	-4.556957
	-4.556957
	-4.560178
	-4.562755
	-4.564044
	-4.568231
	-4.572097
	-4.574996
	-4.574996
	-4.575962
	-4.577573
	-4.577895
	-4.579184
	-4.580794
	-4.580472
	-4.582405
	-4.585304
	-4.584338
	-4.583371
	-4.582727
	-4.580794
	-4.578862
	-4.576929
	-4.576929
	-4.573385
	-4.574030
	-4.574030
	-4.572419
	-4.573063
	-4.569842
	-4.564688
	-4.562433
	-4.559856
	-4.557279
	-4.553736
	-4.551159
	-4.550837
	-4.546327
	-4.543750
	-4.538596
	-4.532153
	-4.526999
	-4.522167
	-4.518624
	-4.513470
	-4.510249
	-4.505417
	-4.499296
	-4.495753
	-4.488666
	-4.481257
	-4.476103
	-4.470949
	-4.464185
	-4.456776
	-4.452588
	-4.445179
	-4.437770
	-4.431328
	-4.421020
	-4.412966
	-4.405558
	-4.396860
	-4.389451
	-4.381720
	-4.374956
	-4.366580
	-4.355950
	-4.348541
	-4.336945
	-4.326314
	-4.319228
	-4.309564
	-4.298934
	-4.289592
	-4.280250
	-4.271231
	-4.259956
	-4.250615
	-4.238052
	-4.224845
	-4.214214
	-4.202618
	-4.190377
	-4.178458
	-4.166862
	-4.156554
	-4.143991
	-4.134005
	-4.122086
	-4.106624
	-4.094706
	-4.081176
	-4.067647
	-4.052185
	-4.039944
	-4.028026
	-4.013530
	-3.998712
	-3.986471
	-3.973264
	-3.959091
	-3.943629
	-3.928489
	-3.911738
	-3.894988
	-3.882747
	-3.866963
	-3.851501
	-3.835716
	-3.820254
	-3.807047
	-3.791263
	-3.773868
	-3.757118
	-3.738756
	-3.721684
	-3.703323
	-3.688183
	-3.671110
	-3.652749
	-3.636320
	-3.619892
	-3.604430
	-3.586069
	-3.566741
	-3.549024
	-3.530019
	-3.510369
	-3.490398
	-3.473003
	-3.453997
	-3.435958
	-3.418564
	-3.401169
	-3.379264
	-3.358004
	-3.337066
	-3.317416
	-3.300988
	-3.278117
	-3.257501
	-3.239140
	-3.220778
	-3.201129
	-3.178580
	-3.156353
	-3.136059
	-3.112544
	-3.093217
	-3.070024
	-3.048441
	-3.029758
	-3.009142
	-2.987882
	-2.966299
	-2.943106
	-2.918625
	-2.896076
	-2.873849
	-2.851623
	-2.829718
	-2.807169
	-2.784943
	-2.763682
	-2.740489
	-2.715686
	-2.692171
	-2.667689
	-2.644496
	-2.620981
	-2.597788
	-2.576528
	-2.553335
	-2.528209
	-2.502439
	-2.476669
	-2.453476
	-2.429638
	-2.405157
	-2.380675
	-2.356516
	-2.333967
	-2.307875
	-2.279850
	-2.255691
	-2.228954
	-2.205439
	-2.179347
	-2.153899
	-2.130384
	-2.106547
	-2.080777
	-2.054684
	-2.027304
	-2.000890
	-1.972865
	-1.948061
	-1.922291
	-1.896199
	-1.871073
	-1.846914
	-1.821466
	-1.792474
	-1.764127
	-1.737391
	-1.709688
	-1.684562
	-1.655249
	-1.629801
	-1.604675
	-1.578905
	-1.551524
	-1.524466
	-1.497407
	-1.468416
	-1.438458
	-1.412688
	-1.385952
	-1.357927
	-1.331834
	-1.306387
	-1.278039
	-1.247760
	-1.219413
	-1.191710
	-1.161752
	-1.134049
	-1.108279
	-1.083797
	-1.054806
	-1.026137
	-0.998112
	-0.968798
	-0.939163
	-0.910816
	-0.882791
	-0.856054
	-0.828673
	-0.801615
	-0.772946
	-0.741377
	-0.712386
	-0.684683
	-0.654725
	-0.627344
	-0.599964
	-0.573227
	-0.545202
	-0.513956
	-0.483354
	-0.455329
	-0.427304
	-0.398312
	-0.369643
	-0.344839
	-0.315203
	-0.283635
	-0.255288
	-0.225008
	-0.196016
	-0.166381
	-0.137711
	-0.111297
	-0.083272
	-0.055569
	-0.026577
	0.004347
	0.034949
	0.063618
	0.090677
	0.119669
	0.147372
	0.173786
	0.202778
	0.233702
	0.264304
	0.293618
	0.320354
	0.351601
	0.380270
	0.406040
	0.433099
	0.462091
	0.493337
	0.522651
	0.550354
	0.580312
	0.608981
	0.636040
	0.663099
	0.691446
	0.721082
	0.749107
	0.778743
	0.809023
	0.836082
	0.863785
	0.892777
	0.921124
	0.946895
	0.975564
	1.006489
	1.035158
	1.063184
	1.090887
	1.117946
	1.144682
	1.170775
	1.199122
	1.229725
	1.259361
	1.284809
	1.310902
	1.339571
	1.366630
	1.391112
	1.419137
	1.446519
	1.475188
	1.502891
	1.530595
	1.558298
	1.584391
	1.610483
	1.635932
	1.662346
	1.691660
	1.717431
	1.745456
	1.774448
	1.799897
	1.825345
	1.848538
	1.874309
	1.902012
	1.929071
	1.956453
	1.984156
	2.008638
	2.033764
	2.057602
	2.085306
	2.110432
	2.136847
	2.161973
	2.188388
	2.212548
	2.238319
	2.262156
	2.286316
	2.309510
	2.335281
	2.362662
	2.389077
	2.412593
	2.435786
	2.461235
	2.484429
	2.506012
	2.529527
	2.555620
	2.583002
	2.605551
	2.627456
	2.651616
	2.674488
	2.693816
	2.716043
	2.740847
	2.767585
	2.789168
	2.812361
	2.835877
	2.858105
	2.879688
	2.899660
	2.922532
	2.944437
	2.966342
	2.990180
	3.013052
	3.035279
	3.055896
	3.075868
	3.096807
	3.118068
	3.136752
	3.159624
	3.183140
	3.203112
	3.221474
	3.242090
	3.262707
	3.280425
	3.300397
	3.320692
	3.342597
	3.362247
	3.380287
	3.401870
	3.421843
	3.439238
	3.456634
	3.474996
	3.494324
	3.513008
	3.532014
	3.552631
	3.570026
	3.587744
	3.605139
	3.622212
	3.638319
	3.653460
	3.671822
	3.692439
	3.709190
	3.725619
	3.741404
	3.758799
	3.774906
	3.787792
	3.804865
	3.820650
	3.836435
	3.854796
	3.870581
	3.885722
	3.899252
	3.915681
	3.930177
	3.942096
	3.955948
	3.970122
	3.987196
	4.003625
	4.015544
	4.031329
	4.043892
	4.053557
	4.065798
	4.081261
	4.097690
	4.108965
	4.122494
	4.134092
	4.146333
	4.155997
	4.167272
	4.180158
	4.192721
	4.203996
	4.217204
	4.229123
	4.238787
	4.249096
	4.258760
	4.269391
	4.277766
	4.289041
	4.303215
	4.312235
	4.321900
	4.331242
	4.339939
	4.346704
	4.353469
	4.364422
	4.374086
	4.382462
	4.390838
	4.400180
	4.408233
	4.414998
	4.420797
	4.428206
	4.434971
	4.442703
	4.451723
	4.460098
	4.465252
	4.471051
	4.476527
	4.481682
	4.484903
	4.492312
	4.499722
	4.507131
	4.510674
	4.515507
	4.520339
	4.521627
	4.523238
	4.530003
	4.535157
	4.541278
	4.544499
	4.547399
	4.552875
	4.554808
	4.556096
	4.558029
	4.560929
	4.564794
	4.566727
	4.570915
	4.573170
	4.571881
	4.574459
	4.574136
	4.574459
	4.574136
	4.575747
	4.578324
	4.578324
	4.578646
	4.579935
	4.580901
	4.578646
	4.576714
	4.576069
	4.577358
	4.576714
	4.576069
	4.574136
	4.573814
	4.571237
	4.566083
	4.563506
	4.561895
	4.560284
	4.558029
	4.557063
	4.554808
	4.549654
	4.545788
	4.541922
	4.536446
	4.531936
	4.529037
	4.528714
	4.523882
	4.519372
	4.514862
	4.509708
	4.501977
	4.494567
	4.489413
	4.485225
	4.480393
	4.474595
	4.471373
	4.463642
	4.455588
	4.447535
	4.438837
	4.433360
	4.425629
	4.419508
	4.413388
	4.406301
	4.398569
	4.391160
	4.380529
	4.371509
	4.360234
	4.351859
	4.345094
	4.338007
	4.328342
	4.318678
	4.310302
	4.300316
	4.288719
	4.277122
	4.267780
	4.256505
	4.245552
	4.236854
	4.228801
	4.216882
	4.205285
	4.193043
	4.180480
	4.165661
	4.154064
	4.143434
	4.132481
	4.119917
	4.108965
	4.095757
	4.083193
	4.067731
	4.052590
	4.039705
	4.025530
	4.013933
	4.000726
	3.988484
	3.973022
	3.958203
	3.945640
	3.928889
	3.911493
	3.896997
	3.883789
	3.868971
	3.853830
	3.839334
	3.825160
	3.806798
	3.790369
	3.772651
	3.756544
	3.737538
	3.722075
	3.708223
	3.693083
	3.675365
	3.657648
	3.640896
	3.625112
	3.604495
	3.585167
	3.567449
	3.549087
	3.531370
	3.513974
	3.497545
	3.478539
	3.457600
	3.440527
	3.419588
	3.399615
	3.379321
	3.360959
	3.343886
	3.324880
	3.305551
	3.286545
	3.267217
	3.245956
	3.224373
	3.202146
	3.180240
	3.159301
	3.139973
	3.122900
	3.100995
	3.080378
	3.057829
	3.036568
	3.013696
	2.990502
	2.970208
	2.946047
	2.923176
	2.903526
	2.881943
	2.861326
	2.837810
	2.816227
	2.794644
	2.771128
	2.746002
	2.721519
	2.698004
	2.674488
	2.652583
	2.632288
	2.607806
	2.583002
	2.558519
	2.534359
	2.508911
	2.482818
	2.458980
	2.438041
	2.413881
	2.390366
	2.367172
	2.343012
	2.317563
	2.292115
	2.266022
	2.239929
	2.213192
	2.189032
	2.166161
	2.143289
	2.115908
	2.089493
	2.065011
	2.038596
	2.009927
	1.985122
	1.960318
	1.933259
	1.908133
	1.883651
	1.858202
	1.830177
	1.804406
	1.777025
	1.749000
	1.720330
	1.693271
	1.669433
	1.642696
	1.617248
	1.591155
	1.564418
	1.535749
	1.507079
	1.478410
	1.451028
	1.422359
	1.396588
	1.369851
	1.344403
	1.317344
	1.289963
	1.261938
	1.234557
	1.204921
	1.175607
	1.145649
	1.118268
	1.090565
	1.064150
	1.038057
	1.011321
	0.983940
	0.954626
	0.927567
	0.897931
	0.866362
	0.837371
	0.810634
	0.783897
	0.755872
	0.727203
	0.700466
	0.672119
	0.642161
	0.613491
	0.584177
	0.554219
	0.524906
	0.496558
	0.469822
	0.440508
	0.412805
	0.385424
	0.355466
	0.326153
	0.297161
	0.268492
	0.239822
	0.208898
	0.179906
	0.153814
	0.127077
	0.097764
	0.069417
	0.039781
	0.010145
	-0.020457
	-0.048804
	-0.079084
	-0.108076
	-0.138678
	-0.166703
	-0.191507
	-0.219210
	-0.248523
	-0.277837
	-0.306184
	-0.337752
	-0.367066
	-0.394447
	-0.424082
	-0.453396
	-0.479810
	-0.505580
	-0.534572
	-0.564530
	-0.592555
	-0.620902
	-0.650538
	-0.682428
	-0.711419
	-0.740089
	-0.767792
	-0.795494
	-0.821909
	-0.848967
	-0.878603
	-0.907272
	-0.935297
	-0.963322
	-0.992958
	-1.021949
	-1.049652
	-1.077355
	-1.104414
	-1.131150
	-1.158209
	-1.186234
	-1.214903
	-1.243250
	-1.270308
	-1.300588
	-1.328613
	-1.356638
	-1.381764
	-1.407534
	-1.435559
	-1.461973
	-1.489032
	-1.515124
	-1.543793
	-1.572785
	-1.599843
	-1.627546
	-1.652994
	-1.677475
	-1.704534
	-1.730626
	-1.758007
	-1.784743
	-1.811802
	-1.840471
	-1.868174
	-1.893944
	-1.918747
	-1.944195
	-1.969965
	-1.995091
	-2.020217
	-2.047920
	-2.072723
	-2.098171
	-2.125230
	-2.152288
	-2.178703
	-2.201574
	-2.224767
	-2.249892
	-2.275340
	-2.300788
	-2.325592
	-2.351040
	-2.376488
	-2.401614
	-2.426739
	-2.450577
	-2.474736
	-2.497285
	-2.519834
	-2.543993
	-2.569119
	-2.592956
	-2.617760
	-2.641597
	-2.666723
	-2.690560
	-2.710854
	-2.731148
	-2.754019
	-2.779789
	-2.802338
	-2.825853
	-2.849690
	-2.873527
	-2.897042
	-2.917336
	-2.937630
	-2.959535
	-2.979829
	-3.002055
	-3.023316
	-3.046186
	-3.070668
	-3.090640
	-3.110934
	-3.130905
	-3.152166
	-3.173748
	-3.192754
	-3.213692
	-3.237207
	-3.257823
	-3.278439
	-3.296156
	-3.315161
	-3.334167
	-3.354138
	-3.373788
	-3.393438
	-3.414054
	-3.433703
	-3.451420
	-3.472359
	-3.488465
	-3.507792
	-3.525831
	-3.544193
	-3.564164
	-3.583170
	-3.599598
	-3.619570
	-3.635354
	-3.651460
	-3.667567
	-3.685284
	-3.702678
	-3.718463
	-3.738112
	-3.755185
	-3.772580
	-3.786109
	-3.800283
	-3.818322
	-3.834750
	-3.849246
	-3.865996
	-3.883391
	-3.898853
	-3.913671
	-3.926878
	-3.941052
	-3.953937
	-3.968754
	-3.984216
	-3.997746
	-4.013852
	-4.029636
	-4.043165
	-4.054118
	-4.066681
	-4.079566
	-4.091484
	-4.105336
	-4.118543
	-4.133039
	-4.146246
	-4.156554
	-4.169117
	-4.179425
	-4.189733
	-4.203906
	-4.214537
	-4.226133
	-4.238696
	-4.249648
	-4.258668
	-4.268654
	-4.279606
	-4.288626
	-4.298289
	-4.309564
	-4.319872
	-4.330502
	-4.341132
	-4.348541
	-4.357561
	-4.365936
	-4.373989
	-4.382687
	-4.390418
	-4.401370
	-4.410712
	-4.416510
	-4.423274
	-4.429395
	-4.436160
	-4.444535
	-4.451622
	-4.458064
	-4.463862
	-4.473526
	-4.479002
	-4.482868
	-4.488022
	-4.493176
	-4.498652
	-4.506705
	-4.511859
	-4.518302
	-4.522489
	-4.527643
	-4.530221
	-4.533764
	-4.538596
	-4.540529
	-4.544716
	-4.548904
	-4.552447
	-4.558246
	-4.561467
	-4.562755
	-4.562755
	-4.564688
	-4.567265
	-4.568876
	-4.572097
	-4.575962
	-4.577895
	-4.579828
	-4.579184
	-4.578539
	-4.579506
	-4.579184
	-4.578539
	-4.580472
	-4.584016
	-4.583049
	-4.583049
	-4.583049
	-4.577895
	-4.578217
	-4.576929
	-4.575318
	-4.576285
	-4.577573
	-4.574996
	-4.571453
	-4.566943
	-4.565332
	-4.561789
	-4.560178
	-4.557279
	-4.553414
	-4.554058
	-4.549870
	-4.544716
	-4.540851
	-4.535697
	-4.532153
	-4.527321
	-4.522489
	-4.520557
	-4.516047
	-4.511859
	-4.504773
	-4.498652
	-4.493498
	-4.487056
	-4.480935
	-4.477714
	-4.473848
	-4.466117
	-4.457420
	-4.450655
	-4.442602
	-4.434871
	-4.428429
	-4.420697
	-4.414255
	-4.408135
	-4.400404
	-4.390740
	-4.380432
	-4.372379
	-4.363037
	-4.354017
	-4.345642
	-4.338555
	-4.330502
	-4.320194
	-4.309564
	-4.299578
	-4.288304
	-4.278640
	-4.268654
	-4.257379
	-4.248038
	-4.239985
	-4.228710
	-4.213570
	-4.201007
	-4.190699
	-4.179747
	-4.166862
	-4.154943
	-4.145602
	-4.133361
	-4.120476
	-4.107913
	-4.093739
	-4.079244
	-4.066681
	-4.054440
	-4.040588
	-4.027703
	-4.016107
	-4.002900
	-3.987116
	-3.971976
	-3.956836
	-3.941052
	-3.924945
	-3.911738
	-3.899819
	-3.883713
	-3.868573
	-3.853111
	-3.835072
	-3.819610
	-3.804148
	-3.787397
	-3.772580
	-3.754541
	-3.741333
	-3.725871
	-3.707832
	-3.688827
	-3.671754
	-3.654360
	-3.635032
	-3.617315
	-3.601531
	-3.584780
	-3.566741
	-3.547736
	-3.529375
	-3.510047
	-3.490720
	-3.473969
	-3.455608
	-3.437247
	-3.418886
	-3.397948
	-3.376365
	-3.357038
	-3.337066
	-3.319027
	-3.299699
	-3.280050
	-3.261044
	-3.241072
	-3.218524
	-3.196297
	-3.174392
	-3.155387
	-3.135415
	-3.114799
	-3.094183
	-3.073245
	-3.053273
	-3.030402
	-3.008820
	-2.984983
	-2.962756
	-2.939563
	-2.917014
	-2.897042
	-2.877715
	-2.854522
	-2.831973
	-2.807814
	-2.784298
	-2.760783
	-2.735980
	-2.713431
	-2.692171
	-2.670910
	-2.648039
	-2.624524
	-2.599721
	-2.573951
	-2.548503
	-2.523377
	-2.498895
	-2.476347
	-2.452509
	-2.431893
	-2.408378
	-2.383252
	-2.357160
	-2.329457
	-2.304976
	-2.280817
	-2.254080
	-2.229276
	-2.205439
	-2.181602
	-2.156476
	-2.131995
	-2.107835
	-2.080454
	-2.052430
	-2.025693
	-2.000245
	-1.973509
	-1.946772
	-1.921647
	-1.898454
	-1.873328
	-1.845625
	-1.818889
	-1.792152
	-1.764449
	-1.736747
	-1.710654
	-1.682952
	-1.656859
	-1.630445
	-1.605641
	-1.580193
	-1.551202
	-1.521567
	-1.492897
	-1.466161
	-1.439425
	-1.411077
	-1.384341
	-1.360826
	-1.333767
	-1.304776
	-1.273852
	-1.246149
	-1.218768
	-1.190421
	-1.163685
	-1.137270
	-1.110534
	-1.081543
	-1.053840
	-1.026781
	-0.996823
	-0.967188
	-0.938196
	-0.910494
	-0.882791
	-0.856054
	-0.828029
	-0.801615
	-0.771013
	-0.740089
	-0.711097
	-0.683394
	-0.655692
	-0.626056
	-0.598353
	-0.572905
	-0.544558
	-0.514600
	-0.485609
	-0.456295
	-0.425693
	-0.396057
	-0.368677
	-0.340007
	-0.308439
	-0.282024
	-0.255610
	-0.226619
	-0.197627
	-0.169280
	-0.139322
	-0.108076
	-0.079084
	-0.050415
	-0.022068
	0.007890
	0.034627
	0.061041
	0.089066
	0.119991
	0.148016
	0.178296
	0.208254
	0.236601
	0.265592
	0.293940
	0.322609
	0.349990
	0.376727
	0.408295
	0.438253
	0.467245
	0.495914
	0.525872
	0.552287
	0.579990
	0.608337
	0.635396
	0.662777
	0.693379
	0.723981
	0.754261
	0.780032
	0.808379
	0.837371
	0.863141
	0.891166
	0.919192
	0.949472
	0.978463
	1.007777
	1.036769
	1.063184
	1.091531
	1.117301
	1.144038
	1.173030
	1.199767
	1.228436
	1.259039
	1.284809
	1.312512
	1.340538
	1.368241
	1.394011
	1.420104
	1.447807
	1.475832
	1.502569
	1.532205
	1.561519
	1.587290
	1.613705
	1.640441
	1.665890
	1.690050
	1.717753
	1.746745
	1.774770
	1.800219
	1.826311
	1.853693
	1.879141
	1.901690
	1.930360
	1.959352
	1.984156
	2.010249
	2.035375
	2.062434
	2.084017
	2.108499
	2.135880
	2.163906
	2.189354
	2.213837
	2.240251
	2.265378
	2.285994
	2.311443
	2.337536
	2.362984
	2.388755
	2.414203
	2.438041
	2.461235
	2.482818
	2.506334
	2.531460
	2.556264
	2.580425
	2.606517
	2.629389
	2.651294
	2.674810
	2.697037
	2.718298
	2.742136
	2.768551
	2.791745
	2.811717
	2.836522
	2.860360
	2.881298
	2.902237
	2.925109
	2.946370
	2.967953
	2.992113
	3.014985
	3.035923
	3.057506
	3.078445
	3.098096
	3.117102
	3.135463
	3.158979
	3.181207
	3.202468
	3.224695
	3.243701
	3.264318
	3.284935
	3.302974
	3.321014
	3.341953
	3.363536
	3.384797
	3.403159
	3.422809
	3.442782
	3.461144
	3.477573
	3.494002
	3.514618
	3.531370
	3.550698
	3.571959
	3.589999
	3.606428
	3.623823
	3.642507
	3.658614
	3.672466
	3.691794
	3.708868
	3.726907
	3.744303
	3.761376
	3.776839
	3.792946
	3.808408
	3.824838
	3.837079
	3.851253
	3.868648
	3.885722
	3.901829
	3.917291
	3.932754
	3.945962
	3.959814
	3.974310
	3.986874
	4.000403
	4.015222
	4.029718
	4.044859
	4.058711
	4.073207
	4.085771
	4.098012
	4.108965
	4.119595
	4.132159
	4.145366
	4.157930
	4.171782
	4.184345
	4.195620
	4.205285
	4.214627
	4.226868
	4.236532
	4.248774
	4.262626
	4.272934
	4.281954
	4.293229
	4.302893
	4.311591
	4.319000
	4.329631
	4.340262
	4.349282
	4.358946
	4.368288
	4.378274
	4.384395
	4.391160
	4.399858
	4.405978
	4.414354
	4.423052
	4.431428
	4.437870
	4.444313
	4.450756
	4.458810
	4.462997
	4.469762
	4.479105
	4.484259
	4.490702
	4.496500
	4.502299
	4.506164
	4.510674
	4.514540
	4.517439
	4.523238
	4.529359
	4.536446
	4.538379
	4.542244
	4.546432
	4.547077
	4.547721
	4.552553
	4.558996
	4.563184
	4.564794
	4.568016
	4.569304
	4.566727
	4.567694
	4.570593
	4.574459
	4.576391
	4.578324
	4.580257
	4.579613
	4.580579
	4.580901
	4.579291
	4.577680
	4.576069
	4.578002
	4.579613
	4.580257
	4.580901
	4.579613
	4.576714
	4.573814
	4.570593
	4.568660
	4.566083
	4.566405
	4.565761
	4.561895
	4.558351
	4.556419
	4.553841
	4.547721
	4.544177
	4.541278
	4.538379
	4.534513
	4.532258
	4.528392
	4.524527
	4.517762
	4.511319
	4.507131
	4.501010
	4.497144
	4.492957
	4.487480
	4.482004
	4.476527
	4.469118
	4.461065
	4.453655
	4.448179
	4.440125
	4.435938
	4.429495
	4.421763
	4.414032
	4.406623
	4.399213
	4.388261
	4.378596
	4.373442
	4.366355
	4.355724
	4.347671
	4.339295
	4.327376
	4.315779
	4.306437
	4.297095
	4.288397
	4.280021
	4.270679
	4.260048
	4.248774
	4.237176
	4.225257
	4.211727
	4.202707
	4.193043
	4.181768
	4.169849
	4.158252
	4.146977
	4.132803
	4.116696
	4.105421
	4.091247
	4.080616
	4.070630
	4.058066
	4.043248
	4.028752
	4.014900
	3.999437
	3.982686
	3.970767
	3.959170
	3.944995
	3.931143
	3.916003
	3.899574
	3.883145
	3.867038
	3.853186
	3.837401
	3.823227
	3.807120
	3.790691
	3.774906
	3.757511
	3.741726
	3.722397
	3.703713
	3.688573
	3.674399
	3.657970
	3.641541
	3.623823
	3.607072
	3.586133
	3.566805
	3.548765
	3.532014
	3.513974
	3.497223
	3.480472
	3.459533
	3.440205
	3.422487
	3.402192
	3.381254
	3.360315
	3.342919
	3.323913
	3.305874
	3.286867
	3.266573
	3.245312
	3.225017
	3.203434
	3.181207
	3.158657
	3.138685
	3.120967
	3.100028
	3.078445
	3.059117
	3.036245
	3.014662
	2.990180
	2.969241
	2.945725
	2.924787
	2.904170
	2.883875
	2.861326
	2.839421
	2.817516
	2.793355
	2.767263
	2.745035
	2.720875
	2.698326
	2.677709
	2.655160
	2.631000
	2.607484
	2.583646
	2.559808
	2.533715
	2.508911
	2.486361
	2.462201
	2.439008
	2.415170
	2.392620
	2.366850
	2.341401
	2.315953
	2.289860
	2.263767
	2.238319
	2.215125
	2.191931
	2.166161
	2.140068
	2.115586
	2.089815
	2.062112
	2.033764
	2.010249
	1.984478
	1.958385
	1.934548
	1.909421
	1.882684
	1.856270
	1.830499
	1.805373
	1.775414
	1.746745
	1.721619
	1.695204
	1.668789
	1.643018
	1.617570
	1.590833
	1.562486
	1.535749
	1.506435
	1.478087
	1.450062
	1.423647
	1.398521
	1.371784
	1.343437
	1.317344
	1.289963
	1.261294
	1.231658
	1.202344
	1.174963
	1.146293
	1.120201
	1.094752
	1.066727
	1.037735
	1.007777
	0.981041
	0.953015
	0.921769
	0.893421
	0.866362
	0.839626
	0.811923
	0.784542
	0.756839
	0.728813
	0.699822
	0.668253
	0.637973
	0.610592
	0.582245
	0.554864
	0.527805
	0.500424
	0.470466
	0.440508
	0.412805
	0.380592
	0.350956
	0.325508
	0.297805
	0.268492
	0.239178
	0.211797
	0.182483
	0.152203
	0.124823
	0.094865
	0.063940
	0.036882
	0.008212
	-0.019491
	-0.048482
	-0.078118
	-0.105177
	-0.136101
	-0.165092
	-0.193762
	-0.223397
	-0.250134
	-0.277837
	-0.305862
	-0.335820
	-0.366100
	-0.395735
	-0.424405
	-0.454684
	-0.481743
	-0.508802
	-0.536827
	-0.564852
	-0.593521
	-0.622190
	-0.652470
	-0.683394
	-0.711419
	-0.739767
	-0.766181
	-0.794528
	-0.821909
	-0.848967
	-0.878603
	-0.906628
	-0.935297
	-0.964289
	-0.993602
	-1.023560
	-1.050941
	-1.076711
	-1.105058
	-1.133083
	-1.159175
	-1.186234
	-1.214259
	-1.242928
	-1.270631
	-1.300588
	-1.328613
	-1.356638
	-1.383697
	-1.410755
	-1.437170
	-1.462295
	-1.489032
	-1.517379
	-1.545404
	-1.572462
	-1.599843
	-1.627868
	-1.657182
	-1.682629
	-1.708077
	-1.732237
	-1.759617
	-1.786032
	-1.812446
	-1.838860
	-1.867530
	-1.895232
	-1.921002
	-1.946772
	-1.972865
	-1.996702
	-2.022472
	-2.047598
	-2.074334
	-2.101393
	-2.127485
	-2.153255
	-2.179025
	-2.203184
	-2.227344
	-2.249570
	-2.276307
	-2.302399
	-2.326558
	-2.352650
	-2.379709
	-2.404835
	-2.428028
	-2.448644
	-2.473447
	-2.498573
	-2.521766
	-2.545604
	-2.570085
	-2.596822
	-2.620981
	-2.642563
	-2.664790
	-2.688305
	-2.712142
	-2.734369
	-2.756918
	-2.782044
	-2.806203
	-2.829074
	-2.851301
	-2.871917
	-2.894465
	-2.916048
	-2.936664
	-2.959213
	-2.982083
	-3.004632
	-3.028147
	-3.048763
	-3.071634
	-3.090962
	-3.111256
	-3.131872
	-3.153132
	-3.174070
	-3.194042
	-3.214980
	-3.237207
	-3.258789
	-3.279405
	-3.297766
	-3.316450
	-3.335777
	-3.355749
	-3.374754
	-3.392793
	-3.415987
	-3.435958
	-3.453353
	-3.471714
	-3.488787
	-3.508114
	-3.527120
	-3.543870
	-3.563842
	-3.583814
	-3.604430
	-3.620214
	-3.637287
	-3.653071
	-3.667889
	-3.685284
	-3.702678
	-3.721040
	-3.739401
	-3.755185
	-3.772902
	-3.789008
	-3.802215
	-3.817999
	-3.834106
	-3.850212
	-3.864063
	-3.880492
	-3.898853
	-3.914315
	-3.927844
	-3.942662
	-3.955869
	-3.967788
	-3.982284
	-3.997101
	-4.010953
	-4.025771
	-4.041877
	-4.056695
	-4.068291
	-4.080210
	-4.092773
	-4.104369
	-4.115966
	-4.129817
	-4.143669
	-4.156554
	-4.169761
	-4.184257
	-4.195853
	-4.204873
	-4.213892
	-4.226133
	-4.235475
	-4.245139
	-4.256735
	-4.268010
	-4.280572
	-4.292491
	-4.303121
	-4.310530
	-4.318906
	-4.328891
	-4.337911
	-4.346608
	-4.355306
	-4.364003
	-4.374311
	-4.384297
	-4.392672
	-4.400081
	-4.406524
	-4.414255
	-4.421020
	-4.427140
	-4.435837
	-4.441958
	-4.449045
	-4.458064
	-4.464507
	-4.471271
	-4.478036
	-4.483834
	-4.487700
	-4.492854
	-4.499296
	-4.503162
	-4.508316
	-4.515081
	-4.520879
	-4.527321
	-4.532153
	-4.535697
	-4.536341
	-4.538918
	-4.544072
	-4.547293
	-4.550192
	-4.553091
	-4.556635
	-4.560500
	-4.564366
	-4.567265
	-4.567587
	-4.569198
	-4.571453
	-4.571131
	-4.572741
	-4.574996
	-4.576285
	-4.579506
	-4.582083
	-4.580794
	-4.580472
	-4.579184
	-4.579184
	-4.578539
	-4.579184
	-4.577895
	-4.578217
	-4.579828
	-4.578862
	-4.577895
	-4.574352
	-4.572419
	-4.570164
	-4.566943
	-4.565332
	-4.563722
	-4.561145
	-4.562433
	-4.559534
	-4.554702
	-4.550837
	-4.546327
	-4.541817
	-4.538596
	-4.535697
	-4.531509
	-4.528610
	-4.524744
	-4.518946
	-4.511859
	-4.508316
	-4.501873
	-4.496075
	-4.490599
	-4.484801
	-4.481579
	-4.477392
	-4.470305
	-4.460641
	-4.454521
	-4.449045
	-4.440025
	-4.435515
	-4.428429
	-4.421986
	-4.414899
	-4.405558
	-4.396538
	-4.386874
	-4.378499
	-4.370124
	-4.362070
	-4.355628
	-4.347253
	-4.337911
	-4.329858
	-4.318583
	-4.306987
	-4.296035
	-4.286049
	-4.276063
	-4.266399
	-4.258346
	-4.248360
	-4.238052
	-4.226777
	-4.212282
	-4.200363
	-4.188122
	-4.175559
	-4.163963
	-4.153333
	-4.143347
	-4.131428
	-4.119509
	-4.106946
	-4.091807
	-4.078921
	-4.065714
	-4.050574
	-4.036079
	-4.024482
	-4.012886
	-3.999034
	-3.984216
	-3.969077
	-3.953292
	-3.936864
	-3.924301
	-3.908839
	-3.895310
	-3.883069
	-3.868573
	-3.852145
	-3.833139
	-3.818322
	-3.801249
	-3.783854
	-3.768070
	-3.754541
	-3.737468
	-3.721362
	-3.705255
	-3.686572
	-3.668533
	-3.650172
	-3.633421
	-3.615060
	-3.598954
	-3.581559
	-3.565453
	-3.545803
	-3.525187
	-3.506826
	-3.490075
	-3.471714
	-3.451098
	-3.435314
	-3.416631
	-3.396337
	-3.375721
	-3.355105
	-3.336422
	-3.314839
	-3.296156
	-3.278439
	-3.258467
	-3.236885
	-3.216591
	-3.195008
	-3.174392
	-3.152488
	-3.131550
	-3.111900
	-3.092250
	-3.071956
	-3.051018
	-3.027503
	-3.004954
	-2.982083
	-2.961145
	-2.938274
	-2.916692
	-2.895754
	-2.874171
	-2.852267
	-2.826497
	-2.802338
	-2.781077
	-2.757884
	-2.734369
	-2.710210
	-2.689916
	-2.667689
	-2.644174
	-2.618404
	-2.595855
	-2.571374
	-2.545926
	-2.521444
	-2.498895
	-2.475702
	-2.452831
	-2.428350
	-2.402258
	-2.376488
	-2.350718
	-2.324626
	-2.303365
	-2.277595
	-2.252792
	-2.230887
	-2.206406
	-2.178703
	-2.150356
	-2.125874
	-2.100748
	-2.074656
	-2.049208
	-2.025371
	-2.000890
	-1.974475
	-1.947417
	-1.922613
	-1.892977
	-1.866241
	-1.839505
	-1.814379
	-1.787965
	-1.761872
	-1.737391
	-1.711299
	-1.681985
	-1.653960
	-1.626902
	-1.598877
	-1.571496
	-1.545726
	-1.519956
	-1.493864
	-1.467127
	-1.439102
	-1.409467
	-1.382408
	-1.353739
	-1.327969
	-1.299944
	-1.271919
	-1.247437
	-1.218446
	-1.188488
	-1.161108
	-1.133083
	-1.104736
	-1.075100
	-1.051263
	-1.025171
	-0.994569
	-0.965255
	-0.936264
	-0.907272
	-0.877959
	-0.851867
	-0.824808
	-0.796783
	-0.768758
	-0.739122
	-0.708520
	-0.679529
	-0.651826
	-0.623801
	-0.594810
	-0.568717
	-0.542625
	-0.512989
	-0.482387
	-0.452752
	-0.422794
	-0.393480
	-0.364489
	-0.337752
	-0.310049
	-0.282024
	-0.254644
	-0.223397
	-0.192151
	-0.164448
	-0.134812
	-0.105499
	-0.076507
	-0.049126
	-0.022068
	0.007890
	0.036882
	0.067806
	0.096475
	0.124823
	0.151559
	0.179584
	0.207932
	0.236923
	0.266237
	0.297483
	0.326153
	0.354500
	0.384136
	0.412161
	0.437609
	0.466278
	0.496881
	0.526194
	0.553897
	0.583855
	0.612525
	0.641516
	0.667931
	0.694345
	0.723015
	0.751684
	0.782931
	0.813533
	0.840592
	0.866685
	0.894710
	0.924990
	0.952371
	0.978786
	1.007455
	1.035480
	1.064472
	1.095074
	1.123422
	1.149514
	1.176895
	1.205243
	1.231658
	1.255817
	1.284165
	1.314445
	1.341504
	1.369851
	1.399165
	1.427191
	1.453283
	1.480020
	1.505791
	1.532527
	1.559587
	1.587612
	1.616926
	1.644629
	1.669755
	1.697137
	1.724196
	1.748355
	1.774770
	1.798930
	1.824701
	1.852404
	1.881718
	1.908777
	1.933903
	1.960318
	1.986089
	2.010893
	2.036019
	2.059857
	2.087238
	2.112043
	2.138135
	2.167127
	2.191287
	2.216091
	2.242506
	2.267955
	2.290504
	2.312731
	2.337536
	2.362984
	2.389399
	2.415492
	2.441263
	2.464778
	2.488294
	2.512776
	2.536292
	2.558197
	2.581391
	2.604262
	2.628745
	2.651616
	2.677065
	2.702836
	2.724741
	2.747934
	2.770806
	2.791745
	2.813006
	2.834267
	2.857782
	2.881298
	2.903526
	2.927686
	2.950557
	2.971818
	2.994046
	3.014985
	3.038178
	3.056540
	3.075868
	3.098418
	3.117424
	3.139651
	3.161879
	3.184428
	3.205045
	3.224373
	3.245956
	3.266251
	3.282680
	3.302974
	3.323269
	3.341953
	3.362247
	3.384475
	3.405092
	3.423776
	3.442782
	3.461788
	3.478539
	3.494968
	3.513008
	3.532336
	3.550376
	3.570348
	3.589999
	3.607716
	3.624790
	3.642829
	3.658614
	3.675687
	3.690184
	3.706935
	3.726263
	3.743336
	3.761376
	3.779094
	3.795201
	3.810341
	3.826126
	3.840622
	3.852542
	3.868648
	3.885722
	3.900862
	3.917936
	3.931788
	3.947573
	3.961425
	3.973666
	3.987518
	4.000726
	4.016188
	4.032617
	4.046469
	4.059355
	4.072241
	4.086737
	4.098012
	4.108320
	4.120884
	4.133769
	4.146655
	4.161151
	4.173393
	4.185634
	4.195298
	4.204962
	4.216882
	4.225902
	4.236210
	4.247807
	4.260693
	4.271323
	4.281310
	4.294195
	4.303537
	4.312235
	4.320611
	4.329953
	4.338973
	4.347349
	4.359268
	4.367966
	4.376664
	4.386972
	4.392771
	4.399858
	4.407589
	4.414032
	4.422085
	4.428850
	4.436904
	4.446890
	4.453333
	4.461065
	4.466219
	4.472984
	4.476205
	4.482004
	4.488125
	4.493601
	4.500044
	4.505842
	4.512607
	4.516473
	4.519372
	4.522916
	4.527748
	4.529037
	4.535157
	4.540312
	4.544499
	4.548043
	4.552231
	4.556741
	4.557063
	4.560606
	4.561895
	4.560284
	4.563184
	4.565761
	4.571559
	4.572848
	4.573814
	4.576069
	4.576714
	4.577358
	4.578002
	4.577680
	4.576069
	4.575747
	4.578646
	4.580257
	4.579291
	4.578002
	4.578002
	4.577358
	4.573814
	4.571237
	4.569949
	4.568660
	4.569304
	4.568660
	4.567371
	4.562861
	4.560284
	4.557385
	4.553197
	4.548687
	4.548043
	4.546110
	4.543211
	4.539667
	4.535479
	4.532902
	4.525493
	4.520017
	4.515184
	4.510997
	4.505842
	4.500044
	4.498433
	4.492957
	4.486836
	4.480715
	4.473628
	4.465575
	4.457843
	4.451723
	4.445924
	4.439481
	4.434327
	4.428850
	4.420797
	4.413066
	4.404368
	4.395348
	4.386328
	4.377630
	4.370865
	4.363456
	4.355080
	4.347027
	4.338007
	4.326410
	4.315779
	4.306115
	4.295162
	4.283565
	4.276478
	4.268424
	4.257471
	4.246519
	4.235244
	4.225902
	4.211405
	4.199808
	4.188855
	4.177903
	4.166950
	4.155353
	4.144078
	4.130226
	4.116696
	4.104133
	4.089314
	4.077717
	4.067086
	4.054201
	4.040671
	4.027463
	4.013933
	3.997826
	3.982042
	3.969800
	3.957237
	3.942740
	3.928244
	3.913748
	3.896997
	3.881212
	3.865105
	3.849964
	3.831280
	3.817751
	3.803899
	3.788114
	3.772329
	3.755256
	3.739149
	3.720465
	3.703069
	3.686962
	3.668600
	3.655715
	3.639608
	3.621890
	3.604173
	3.585167
	3.567127
	3.545544
	3.526860
	3.511719
	3.493679
	3.476284
	3.457922
	3.438916
	3.419266
	3.398005
	3.378999
	3.357415
	3.338087
	3.321014
	3.301041
	3.282680
	3.263674
	3.242735
	3.219863
	3.197636
	3.177019
	3.156402
	3.137074
	3.118068
	3.097773
	3.076512
	3.054285
	3.033024
	3.010797
	2.986637
	2.966342
	2.944115
	2.922532
	2.902559
	2.880654
	2.858105
	2.834589
	2.810751
	2.787235
	2.765330
	2.744391
	2.721842
	2.697037
	2.674810
	2.651294
	2.626490
	2.600397
	2.575915
	2.554654
	2.532104
	2.510199
	2.486039
	2.461557
	2.434498
	2.410016
	2.386178
	2.361051
	2.339146
	2.314986
	2.289860
	2.264411
	2.238319
	2.214803
	2.186133
	2.159396
	2.135558
	2.111076
	2.087560
	2.061790
	2.036019
	2.011859
	1.982223
	1.955808
	1.930038
	1.902979
	1.879463
	1.854015
	1.828888
