LabVIEW Measurement	
Writer_Version	2
Reader_Version	2
Separator	Tab
Decimal_Separator	.
Multi_Headings	No
X_Columns	No
Time_Pref	Absolute
Operator	orzr
Date	2022/04/28
Time	13:06:38.6809731499425819247
***End_of_Header***	
	
Channels	1	
Samples	10000	
Date	2022/04/28	
Time	13:06:38.6809731499425819247	
Y_Unit_Label	Volts	
X_Dimension	Time	
X0	0.0000000000000000E+0	
Delta_X	0.000400	
***End_of_Header***		
X_Value	Voltage	Comment
	0.616068
	-0.262375
	-0.173145
	0.562917
	-0.718506
	0.613169
	-0.262052
	-0.177655
	0.562595
	-0.720761
	0.615746
	-0.263663
	-0.175722
	0.560018
	-0.719795
	0.613813
	-0.261730
	-0.176689
	0.562917
	-0.721727
	0.614458
	-0.264307
	-0.175722
	0.560662
	-0.720761
	0.613813
	-0.263019
	-0.177333
	0.562273
	-0.720761
	0.616068
	-0.263019
	-0.174434
	0.561951
	-0.718184
	0.613813
	-0.261408
	-0.177333
	0.563883
	-0.718506
	0.617357
	-0.261730
	-0.174434
	0.562595
	-0.718828
	0.615746
	-0.261730
	-0.175078
	0.564528
	-0.717862
	0.616068
	-0.262697
	-0.175722
	0.561951
	-0.719473
	0.616068
	-0.261086
	-0.175400
	0.562917
	-0.720761
	0.615102
	-0.264307
	-0.176367
	0.562595
	-0.718828
	0.613813
	-0.262697
	-0.177333
	0.563239
	-0.720439
	0.614780
	-0.262697
	-0.176689
	0.561306
	-0.719473
	0.611881
	-0.263019
	-0.179266
	0.561628
	-0.722050
	0.614458
	-0.264630
	-0.175400
	0.560340
	-0.719795
	0.612525
	-0.263019
	-0.177977
	0.563561
	-0.721083
	0.614780
	-0.263985
	-0.176367
	0.561628
	-0.718184
	0.615424
	-0.259475
	-0.175078
	0.564205
	-0.719795
	0.616068
	-0.262052
	-0.173790
	0.564528
	-0.718184
	0.615424
	-0.263019
	-0.176689
	0.563561
	-0.720117
	0.616390
	-0.261730
	-0.175078
	0.561951
	-0.720439
	0.614780
	-0.261730
	-0.177011
	0.563883
	-0.720117
	0.616068
	-0.262375
	-0.177011
	0.560984
	-0.719795
	0.613491
	-0.262052
	-0.178944
	0.561951
	-0.722694
	0.613491
	-0.266240
	-0.177333
	0.560662
	-0.717862
	0.613169
	-0.261408
	-0.178944
	0.563239
	-0.722050
	0.617035
	-0.263985
	-0.174434
	0.561951
	-0.717862
	0.613813
	-0.261086
	-0.178622
	0.565494
	-0.720439
	0.617679
	-0.262697
	-0.174434
	0.560340
	-0.718184
	0.613491
	-0.260442
	-0.178622
	0.565172
	-0.721727
	0.616712
	-0.265596
	-0.176367
	0.559696
	-0.719150
	0.611236
	-0.261408
	-0.179588
	0.563561
	-0.723660
	0.615746
	-0.265274
	-0.176045
	0.560662
	-0.718828
	0.611881
	-0.261730
	-0.179588
	0.563883
	-0.722372
	0.615746
	-0.263985
	-0.175400
	0.561628
	-0.717862
	0.612525
	-0.261086
	-0.177977
	0.565172
	-0.720117
	0.616712
	-0.263341
	-0.175722
	0.560984
	-0.720439
	0.612525
	-0.261408
	-0.177333
	0.564205
	-0.721083
	0.614780
	-0.263341
	-0.176045
	0.562595
	-0.718506
	0.614135
	-0.261408
	-0.178622
	0.563239
	-0.722050
	0.614458
	-0.264307
	-0.177333
	0.560018
	-0.720761
	0.610914
	-0.262375
	-0.180554
	0.563561
	-0.722372
	0.615102
	-0.264307
	-0.175722
	0.560340
	-0.718506
	0.611881
	-0.260764
	-0.179266
	0.565172
	-0.720439
	0.617357
	-0.263985
	-0.175400
	0.561306
	-0.718184
	0.613491
	-0.259798
	-0.178622
	0.565494
	-0.721727
	0.615746
	-0.264307
	-0.174756
	0.560662
	-0.716573
	0.612203
	-0.260442
	-0.179910
	0.564205
	-0.721405
	0.616712
	-0.263663
	-0.175078
	0.561951
	-0.717862
	0.612525
	-0.259798
	-0.177977
	0.564528
	-0.720761
	0.616068
	-0.263663
	-0.176045
	0.561628
	-0.719473
	0.613169
	-0.260764
	-0.177333
	0.564205
	-0.720117
	0.615424
	-0.262697
	-0.176045
	0.562595
	-0.718184
	0.614780
	-0.260120
	-0.177655
	0.564205
	-0.721083
	0.614458
	-0.262052
	-0.175722
	0.563239
	-0.717540
	0.614780
	-0.261086
	-0.178944
	0.563561
	-0.721083
	0.615102
	-0.263341
	-0.176689
	0.561628
	-0.720117
	0.612847
	-0.261408
	-0.177655
	0.562917
	-0.720117
	0.614135
	-0.262697
	-0.177977
	0.561306
	-0.720117
	0.613169
	-0.261086
	-0.177333
	0.563561
	-0.721405
	0.614780
	-0.263663
	-0.177977
	0.561306
	-0.719473
	0.613813
	-0.260764
	-0.177011
	0.564205
	-0.720761
	0.615424
	-0.262052
	-0.176045
	0.563239
	-0.718506
	0.614135
	-0.262052
	-0.179910
	0.561951
	-0.721083
	0.615102
	-0.262697
	-0.176367
	0.561628
	-0.718828
	0.613169
	-0.260120
	-0.177977
	0.564850
	-0.721083
	0.614458
	-0.264630
	-0.177977
	0.560340
	-0.720439
	0.611881
	-0.262052
	-0.180554
	0.564528
	-0.722694
	0.615746
	-0.264307
	-0.175722
	0.560984
	-0.718184
	0.611236
	-0.260120
	-0.180554
	0.563883
	-0.723016
	0.613813
	-0.265596
	-0.176367
	0.560340
	-0.719150
	0.609626
	-0.261086
	-0.181521
	0.562917
	-0.723016
	0.615424
	-0.264307
	-0.176689
	0.559696
	-0.719150
	0.610592
	-0.260442
	-0.179588
	0.565816
	-0.721405
	0.616712
	-0.263985
	-0.175078
	0.561951
	-0.716896
	0.613813
	-0.258831
	-0.178622
	0.565494
	-0.722372
	0.615102
	-0.263663
	-0.177011
	0.560340
	-0.719795
	0.611236
	-0.261730
	-0.180554
	0.563561
	-0.721083
	0.615102
	-0.262052
	-0.177011
	0.563239
	-0.719795
	0.613169
	-0.261730
	-0.179588
	0.563239
	-0.720439
	0.614458
	-0.261086
	-0.178622
	0.561951
	-0.721405
	0.613491
	-0.263019
	-0.177655
	0.562917
	-0.720117
	0.612525
	-0.262697
	-0.179910
	0.563239
	-0.722050
	0.614458
	-0.263985
	-0.178299
	0.560018
	-0.720439
	0.612525
	-0.260120
	-0.179588
	0.564205
	-0.720439
	0.615102
	-0.263341
	-0.176367
	0.562595
	-0.717218
	0.612525
	-0.259475
	-0.179266
	0.564205
	-0.723338
	0.614780
	-0.265918
	-0.177011
	0.560662
	-0.718184
	0.611881
	-0.260120
	-0.180876
	0.564528
	-0.723016
	0.616068
	-0.263985
	-0.176367
	0.560662
	-0.719473
	0.608981
	-0.261730
	-0.182165
	0.564528
	-0.723016
	0.614458
	-0.265274
	-0.179910
	0.557763
	-0.720761
	0.610270
	-0.262375
	-0.180232
	0.562917
	-0.723982
	0.612847
	-0.264630
	-0.177655
	0.561306
	-0.719473
	0.613491
	-0.260120
	-0.178944
	0.563239
	-0.720761
	0.613169
	-0.261086
	-0.177655
	0.563883
	-0.719795
	0.615102
	-0.261086
	-0.177011
	0.563239
	-0.717862
	0.614458
	-0.259798
	-0.177977
	0.565494
	-0.720117
	0.615424
	-0.261730
	-0.175078
	0.563561
	-0.717218
	0.613813
	-0.260120
	-0.180232
	0.565172
	-0.722050
	0.616068
	-0.262375
	-0.175722
	0.562273
	-0.718506
	0.611236
	-0.259798
	-0.180554
	0.566138
	-0.721405
	0.615102
	-0.263985
	-0.178299
	0.560018
	-0.720439
	0.610592
	-0.261408
	-0.181521
	0.562273
	-0.724304
	0.612847
	-0.264630
	-0.179266
	0.561306
	-0.721083
	0.611881
	-0.262052
	-0.179588
	0.562273
	-0.722050
	0.613169
	-0.261730
	-0.178299
	0.563561
	-0.720439
	0.613169
	-0.262697
	-0.177655
	0.561951
	-0.718184
	0.612847
	-0.260120
	-0.179588
	0.564528
	-0.722372
	0.615424
	-0.263019
	-0.176367
	0.562595
	-0.717540
	0.612847
	-0.258831
	-0.181521
	0.565172
	-0.722694
	0.616390
	-0.263341
	-0.175722
	0.562273
	-0.718184
	0.610914
	-0.259153
	-0.180876
	0.565494
	-0.722372
	0.615102
	-0.263341
	-0.177977
	0.560984
	-0.720117
	0.611558
	-0.258831
	-0.178622
	0.565816
	-0.719150
	0.614780
	-0.260442
	-0.177333
	0.563883
	-0.719473
	0.613813
	-0.259798
	-0.178944
	0.562917
	-0.719795
	0.613813
	-0.260442
	-0.178944
	0.564528
	-0.719795
	0.615102
	-0.261730
	-0.177655
	0.562595
	-0.719150
	0.612847
	-0.260120
	-0.180232
	0.563239
	-0.722050
	0.613491
	-0.262375
	-0.177333
	0.561951
	-0.718828
	0.611558
	-0.260442
	-0.180876
	0.564205
	-0.722050
	0.615102
	-0.261408
	-0.177333
	0.562273
	-0.719150
	0.611558
	-0.260442
	-0.180232
	0.564850
	-0.722372
	0.615102
	-0.263019
	-0.177333
	0.562595
	-0.718828
	0.611881
	-0.258187
	-0.179588
	0.566460
	-0.721405
	0.615102
	-0.263985
	-0.177011
	0.560662
	-0.718506
	0.610914
	-0.258187
	-0.180554
	0.564850
	-0.723338
	0.615424
	-0.263663
	-0.177655
	0.561306
	-0.719150
	0.609626
	-0.260764
	-0.183131
	0.564205
	-0.723982
	0.614458
	-0.264307
	-0.177977
	0.560340
	-0.720117
	0.609626
	-0.259153
	-0.181521
	0.565172
	-0.723338
	0.614780
	-0.263341
	-0.178622
	0.560662
	-0.719473
	0.610914
	-0.259798
	-0.180232
	0.565172
	-0.721405
	0.614135
	-0.262697
	-0.178622
	0.562273
	-0.719795
	0.613169
	-0.260120
	-0.179266
	0.563561
	-0.720761
	0.613813
	-0.260120
	-0.179266
	0.564850
	-0.721727
	0.614135
	-0.262052
	-0.177977
	0.563561
	-0.717218
	0.614135
	-0.256898
	-0.180232
	0.564850
	-0.721405
	0.614780
	-0.261730
	-0.177011
	0.561951
	-0.717540
	0.610592
	-0.259153
	-0.181199
	0.566138
	-0.723660
	0.615746
	-0.263341
	-0.178299
	0.559696
	-0.720117
	0.608981
	-0.260764
	-0.183453
	0.563883
	-0.723660
	0.613169
	-0.264630
	-0.179910
	0.560662
	-0.721083
	0.610914
	-0.260120
	-0.179910
	0.563561
	-0.723016
	0.611236
	-0.262697
	-0.181199
	0.564528
	-0.720117
	0.612203
	-0.260442
	-0.180554
	0.563561
	-0.720117
	0.613169
	-0.260442
	-0.179266
	0.564205
	-0.720761
	0.612203
	-0.260764
	-0.178622
	0.564205
	-0.718828
	0.614458
	-0.259153
	-0.178622
	0.564850
	-0.719795
	0.613491
	-0.260442
	-0.178622
	0.563239
	-0.719150
	0.612525
	-0.259798
	-0.179910
	0.565494
	-0.720761
	0.615102
	-0.261408
	-0.176689
	0.562595
	-0.720117
	0.610914
	-0.260120
	-0.181843
	0.565816
	-0.722050
	0.614780
	-0.262375
	-0.177977
	0.562595
	-0.718184
	0.611558
	-0.258187
	-0.181843
	0.564850
	-0.723338
	0.613491
	-0.264307
	-0.178944
	0.560662
	-0.719473
	0.609626
	-0.259798
	-0.183453
	0.564528
	-0.723016
	0.615102
	-0.262375
	-0.177977
	0.562595
	-0.717862
	0.611558
	-0.257221
	-0.180876
	0.566782
	-0.721405
	0.616068
	-0.262052
	-0.177655
	0.561306
	-0.719473
	0.610270
	-0.258831
	-0.181843
	0.566460
	-0.721083
	0.615102
	-0.262375
	-0.177655
	0.562595
	-0.717540
	0.611558
	-0.256576
	-0.180876
	0.566782
	-0.721727
	0.615746
	-0.260764
	-0.175722
	0.562917
	-0.716573
	0.611236
	-0.258187
	-0.181199
	0.567105
	-0.720761
	0.614780
	-0.262697
	-0.177655
	0.561306
	-0.719473
	0.610270
	-0.258831
	-0.180554
	0.566138
	-0.721727
	0.614780
	-0.261730
	-0.179588
	0.562595
	-0.719795
	0.610270
	-0.258509
	-0.181521
	0.566782
	-0.722694
	0.614135
	-0.262697
	-0.179266
	0.560984
	-0.719795
	0.610914
	-0.259798
	-0.182809
	0.564850
	-0.723338
	0.613169
	-0.263341
	-0.178622
	0.562595
	-0.719150
	0.610270
	-0.260120
	-0.183453
	0.564528
	-0.722372
	0.614135
	-0.260120
	-0.177655
	0.563883
	-0.719473
	0.612203
	-0.257221
	-0.178944
	0.566460
	-0.719150
	0.615102
	-0.260120
	-0.180232
	0.563883
	-0.719473
	0.613813
	-0.259798
	-0.179266
	0.566138
	-0.719150
	0.613169
	-0.258831
	-0.179910
	0.564850
	-0.719795
	0.614135
	-0.260764
	-0.179588
	0.564205
	-0.718506
	0.613491
	-0.257865
	-0.179588
	0.565816
	-0.722050
	0.613491
	-0.262375
	-0.179910
	0.563239
	-0.719795
	0.610270
	-0.259798
	-0.183453
	0.562595
	-0.723338
	0.611881
	-0.262697
	-0.179910
	0.560984
	-0.720439
	0.608981
	-0.261086
	-0.183131
	0.564205
	-0.723982
	0.612203
	-0.263019
	-0.179588
	0.562595
	-0.719150
	0.610270
	-0.258509
	-0.181199
	0.563883
	-0.722050
	0.613169
	-0.262052
	-0.180232
	0.563239
	-0.718828
	0.612525
	-0.256898
	-0.178622
	0.567105
	-0.719795
	0.614135
	-0.259153
	-0.177977
	0.566138
	-0.718828
	0.613169
	-0.259153
	-0.181199
	0.565172
	-0.719795
	0.614458
	-0.258509
	-0.177333
	0.565172
	-0.719150
	0.612525
	-0.258509
	-0.182165
	0.566138
	-0.721727
	0.611881
	-0.261730
	-0.180554
	0.562273
	-0.720117
	0.611236
	-0.259153
	-0.180876
	0.565494
	-0.719795
	0.612525
	-0.261086
	-0.180232
	0.562595
	-0.720439
	0.612525
	-0.258509
	-0.182165
	0.565172
	-0.722050
	0.614135
	-0.260764
	-0.178944
	0.563561
	-0.718828
	0.609626
	-0.259798
	-0.183131
	0.565172
	-0.722372
	0.614135
	-0.262375
	-0.178622
	0.561628
	-0.720117
	0.609303
	-0.258509
	-0.183776
	0.565494
	-0.723016
	0.612525
	-0.263019
	-0.179266
	0.561306
	-0.719473
	0.609626
	-0.257543
	-0.182809
	0.564850
	-0.723660
	0.614135
	-0.262697
	-0.178299
	0.561951
	-0.718184
	0.610592
	-0.256898
	-0.183776
	0.566782
	-0.722694
	0.614135
	-0.262052
	-0.178622
	0.562917
	-0.718828
	0.609626
	-0.257221
	-0.182487
	0.566460
	-0.722694
	0.614780
	-0.261086
	-0.177977
	0.561951
	-0.718506
	0.610592
	-0.257221
	-0.180876
	0.567427
	-0.721727
	0.615102
	-0.262375
	-0.178944
	0.561628
	-0.718506
	0.609948
	-0.257221
	-0.183453
	0.565172
	-0.723982
	0.613169
	-0.263019
	-0.179588
	0.561951
	-0.718184
	0.610914
	-0.258187
	-0.182809
	0.565816
	-0.722694
	0.614135
	-0.261408
	-0.179588
	0.562595
	-0.720761
	0.609303
	-0.259475
	-0.183131
	0.564850
	-0.722372
	0.613813
	-0.260442
	-0.181843
	0.562595
	-0.720117
	0.610914
	-0.259475
	-0.181199
	0.564528
	-0.722372
	0.611881
	-0.260764
	-0.180232
	0.565816
	-0.719150
	0.613169
	-0.257543
	-0.181521
	0.565816
	-0.721405
	0.613169
	-0.259475
	-0.180232
	0.564205
	-0.719150
	0.611236
	-0.258831
	-0.182165
	0.566782
	-0.720439
	0.614135
	-0.259153
	-0.177655
	0.564528
	-0.718828
	0.612525
	-0.257543
	-0.180232
	0.568393
	-0.719473
	0.615102
	-0.259798
	-0.179910
	0.563883
	-0.719795
	0.611558
	-0.257221
	-0.180876
	0.566460
	-0.721727
	0.612525
	-0.260764
	-0.178944
	0.564528
	-0.718184
	0.611558
	-0.258509
	-0.184420
	0.565494
	-0.722372
	0.613169
	-0.260764
	-0.179588
	0.562595
	-0.718828
	0.609303
	-0.257543
	-0.183131
	0.567105
	-0.722372
	0.613169
	-0.262052
	-0.179910
	0.561628
	-0.721083
	0.608981
	-0.258509
	-0.184098
	0.567105
	-0.722372
	0.614458
	-0.261730
	-0.178622
	0.562917
	-0.717862
	0.610914
	-0.256254
	-0.182809
	0.566138
	-0.721727
	0.613813
	-0.261408
	-0.177977
	0.563239
	-0.717218
	0.610914
	-0.256898
	-0.183131
	0.567749
	-0.721083
	0.614780
	-0.259798
	-0.179588
	0.563239
	-0.718828
	0.610914
	-0.256898
	-0.182487
	0.566782
	-0.720761
	0.613491
	-0.260442
	-0.179588
	0.563883
	-0.718828
	0.611881
	-0.258187
	-0.181521
	0.567105
	-0.720761
	0.612203
	-0.259798
	-0.180232
	0.564528
	-0.720117
	0.611236
	-0.259475
	-0.183131
	0.564205
	-0.722372
	0.610914
	-0.260442
	-0.181199
	0.565172
	-0.719795
	0.610914
	-0.258831
	-0.181843
	0.564528
	-0.720117
	0.611236
	-0.258831
	-0.182165
	0.563883
	-0.721083
	0.612847
	-0.258831
	-0.178622
	0.564850
	-0.718506
	0.610914
	-0.258509
	-0.183453
	0.566138
	-0.722050
	0.614135
	-0.260120
	-0.179266
	0.564205
	-0.719473
	0.609626
	-0.256898
	-0.182487
	0.567105
	-0.721083
	0.614458
	-0.260120
	-0.179910
	0.563239
	-0.719473
	0.610592
	-0.257221
	-0.182487
	0.567427
	-0.722694
	0.614458
	-0.260442
	-0.179266
	0.562595
	-0.718506
	0.609948
	-0.256576
	-0.184742
	0.565172
	-0.724304
	0.612847
	-0.260764
	-0.180232
	0.562273
	-0.718506
	0.608337
	-0.258187
	-0.184420
	0.566782
	-0.722050
	0.613813
	-0.259475
	-0.179910
	0.563883
	-0.719150
	0.610270
	-0.257221
	-0.182809
	0.566460
	-0.721727
	0.612203
	-0.260442
	-0.180232
	0.563239
	-0.719150
	0.610592
	-0.257543
	-0.181843
	0.567105
	-0.720117
	0.613491
	-0.259475
	-0.180232
	0.565172
	-0.719150
	0.612203
	-0.258187
	-0.182487
	0.566138
	-0.720761
	0.613813
	-0.258509
	-0.180554
	0.566138
	-0.720439
	0.610914
	-0.259153
	-0.181199
	0.565816
	-0.718506
	0.613169
	-0.256576
	-0.181521
	0.566460
	-0.719795
	0.613813
	-0.257543
	-0.178944
	0.565172
	-0.719150
	0.611558
	-0.256254
	-0.181199
	0.567749
	-0.721405
	0.613813
	-0.259153
	-0.180232
	0.564850
	-0.718828
	0.610914
	-0.256576
	-0.183776
	0.565816
	-0.722372
	0.611558
	-0.261730
	-0.180876
	0.562595
	-0.720439
	0.609626
	-0.257221
	-0.184098
	0.566138
	-0.723982
	0.613491
	-0.261730
	-0.180232
	0.563561
	-0.718184
	0.609948
	-0.256898
	-0.184420
	0.566460
	-0.722694
	0.613813
	-0.259798
	-0.178944
	0.563561
	-0.718506
	0.608981
	-0.256576
	-0.183776
	0.567749
	-0.722050
	0.613169
	-0.261408
	-0.180232
	0.564205
	-0.717218
	0.611558
	-0.255610
	-0.183131
	0.568393
	-0.722372
	0.613813
	-0.259153
	-0.178622
	0.564205
	-0.716896
	0.610914
	-0.255288
	-0.183453
	0.567427
	-0.722372
	0.613169
	-0.260764
	-0.180554
	0.564205
	-0.718184
	0.609626
	-0.256898
	-0.183776
	0.567427
	-0.722694
	0.613169
	-0.260442
	-0.180232
	0.562595
	-0.719795
	0.608015
	-0.257221
	-0.184098
	0.567427
	-0.722050
	0.612847
	-0.261408
	-0.180232
	0.563239
	-0.718184
	0.608981
	-0.256576
	-0.183776
	0.566138
	-0.723660
	0.611558
	-0.261086
	-0.180876
	0.562595
	-0.718828
	0.609303
	-0.257221
	-0.184420
	0.567427
	-0.721727
	0.614135
	-0.259153
	-0.179266
	0.565494
	-0.719473
	0.610592
	-0.257221
	-0.183776
	0.567105
	-0.721727
	0.613169
	-0.260120
	-0.181843
	0.563561
	-0.720117
	0.609948
	-0.256898
	-0.183131
	0.567105
	-0.722050
	0.612525
	-0.259798
	-0.182165
	0.565172
	-0.719795
	0.609948
	-0.257865
	-0.185064
	0.564850
	-0.723016
	0.611558
	-0.258831
	-0.181199
	0.564528
	-0.719150
	0.610592
	-0.256898
	-0.182809
	0.567105
	-0.721405
	0.612847
	-0.260120
	-0.180876
	0.563883
	-0.719473
	0.610914
	-0.256576
	-0.183131
	0.567749
	-0.720761
	0.613491
	-0.259153
	-0.180876
	0.564850
	-0.719473
	0.610270
	-0.256254
	-0.183131
	0.567427
	-0.722694
	0.611236
	-0.259475
	-0.182165
	0.564850
	-0.719150
	0.610270
	-0.257543
	-0.184742
	0.565494
	-0.722694
	0.612203
	-0.259153
	-0.180232
	0.564528
	-0.719473
	0.609626
	-0.257865
	-0.184742
	0.567427
	-0.722694
	0.612203
	-0.259798
	-0.182165
	0.564205
	-0.717862
	0.610270
	-0.254644
	-0.183453
	0.568715
	-0.721083
	0.612203
	-0.260764
	-0.180232
	0.563883
	-0.719795
	0.609303
	-0.256254
	-0.182809
	0.567427
	-0.722372
	0.613169
	-0.259798
	-0.180554
	0.564205
	-0.718828
	0.608981
	-0.257221
	-0.185386
	0.566782
	-0.722372
	0.613169
	-0.258509
	-0.180876
	0.564205
	-0.718506
	0.608981
	-0.256898
	-0.184098
	0.568071
	-0.722050
	0.612525
	-0.259798
	-0.181521
	0.562273
	-0.718828
	0.609948
	-0.255288
	-0.184742
	0.567427
	-0.723660
	0.612203
	-0.260120
	-0.180876
	0.564205
	-0.717862
	0.610914
	-0.255932
	-0.184420
	0.567749
	-0.722050
	0.613491
	-0.259475
	-0.179910
	0.564528
	-0.718506
	0.608981
	-0.255610
	-0.184742
	0.567427
	-0.722372
	0.613491
	-0.258509
	-0.180876
	0.563239
	-0.718828
	0.608015
	-0.257221
	-0.184742
	0.567427
	-0.723338
	0.612525
	-0.261086
	-0.181521
	0.563561
	-0.719150
	0.609626
	-0.255932
	-0.184742
	0.567427
	-0.723016
	0.612203
	-0.260120
	-0.179910
	0.565172
	-0.717218
	0.608981
	-0.255610
	-0.184742
	0.567749
	-0.722372
	0.613813
	-0.258831
	-0.180876
	0.565172
	-0.718828
	0.609303
	-0.255932
	-0.184420
	0.567427
	-0.722050
	0.612525
	-0.260120
	-0.182809
	0.562917
	-0.719795
	0.608659
	-0.256576
	-0.184420
	0.566782
	-0.722372
	0.611236
	-0.259153
	-0.182487
	0.564205
	-0.719473
	0.608659
	-0.256576
	-0.186030
	0.564850
	-0.723982
	0.611558
	-0.259153
	-0.181521
	0.565172
	-0.718506
	0.609303
	-0.255610
	-0.182809
	0.568393
	-0.721083
	0.615102
	-0.257865
	-0.180876
	0.565172
	-0.719150
	0.609303
	-0.255610
	-0.183453
	0.568071
	-0.720761
	0.612847
	-0.257865
	-0.182487
	0.565816
	-0.719150
	0.610914
	-0.256576
	-0.183131
	0.566460
	-0.721727
	0.610270
	-0.258831
	-0.183776
	0.566138
	-0.720439
	0.611236
	-0.257543
	-0.184098
	0.565172
	-0.720761
	0.610914
	-0.257543
	-0.183776
	0.565816
	-0.722372
	0.609626
	-0.258831
	-0.183776
	0.564528
	-0.720761
	0.608659
	-0.257543
	-0.185386
	0.566138
	-0.722050
	0.611881
	-0.257543
	-0.181843
	0.565816
	-0.719473
	0.610914
	-0.255932
	-0.182809
	0.566782
	-0.720761
	0.611881
	-0.257543
	-0.182487
	0.565172
	-0.720439
	0.609948
	-0.256254
	-0.183131
	0.566460
	-0.718828
	0.611881
	-0.256898
	-0.184098
	0.566138
	-0.721083
	0.610592
	-0.257221
	-0.182809
	0.565172
	-0.721405
	0.609948
	-0.257221
	-0.183453
	0.567105
	-0.721083
	0.610592
	-0.258187
	-0.184742
	0.564850
	-0.721405
	0.609626
	-0.257865
	-0.183453
	0.564205
	-0.720761
	0.609303
	-0.257865
	-0.184742
	0.565494
	-0.721083
	0.611881
	-0.257865
	-0.183453
	0.565172
	-0.720117
	0.609303
	-0.255610
	-0.183131
	0.568715
	-0.719795
	0.611881
	-0.258509
	-0.183131
	0.564205
	-0.719473
	0.608981
	-0.257221
	-0.184420
	0.566460
	-0.723016
	0.611881
	-0.258187
	-0.181843
	0.565494
	-0.719150
	0.609626
	-0.257221
	-0.185064
	0.567105
	-0.721083
	0.612203
	-0.257221
	-0.182165
	0.564528
	-0.720439
	0.608659
	-0.255932
	-0.184098
	0.567427
	-0.722050
	0.611236
	-0.260120
	-0.184742
	0.562917
	-0.721405
	0.608659
	-0.256576
	-0.185064
	0.567427
	-0.723016
	0.610914
	-0.259475
	-0.183453
	0.563883
	-0.719473
	0.608337
	-0.255610
	-0.186353
	0.567105
	-0.722050
	0.612525
	-0.257221
	-0.181199
	0.565494
	-0.718184
	0.608337
	-0.255932
	-0.186675
	0.567427
	-0.723016
	0.612847
	-0.258831
	-0.182809
	0.562917
	-0.720439
	0.608015
	-0.255610
	-0.186030
	0.567749
	-0.723660
	0.611236
	-0.259798
	-0.182809
	0.563561
	-0.719473
	0.607693
	-0.254321
	-0.186030
	0.567427
	-0.724304
	0.611558
	-0.260120
	-0.183131
	0.562595
	-0.719795
	0.608015
	-0.255610
	-0.186675
	0.567749
	-0.723982
	0.611881
	-0.259153
	-0.181843
	0.565172
	-0.719150
	0.607371
	-0.254644
	-0.186353
	0.567749
	-0.723338
	0.612847
	-0.260120
	-0.181521
	0.563883
	-0.718184
	0.608659
	-0.253677
	-0.184420
	0.569682
	-0.723338
	0.612525
	-0.259798
	-0.182809
	0.563561
	-0.719150
	0.606726
	-0.255610
	-0.187963
	0.567105
	-0.723338
	0.612847
	-0.258187
	-0.182165
	0.563239
	-0.719150
	0.606726
	-0.255610
	-0.186353
	0.568071
	-0.723982
	0.612525
	-0.259475
	-0.182165
	0.563239
	-0.720439
	0.607693
	-0.255288
	-0.187319
	0.567749
	-0.723982
	0.612203
	-0.258509
	-0.182487
	0.564528
	-0.719473
	0.608659
	-0.253355
	-0.184742
	0.570004
	-0.723016
	0.611881
	-0.258187
	-0.182487
	0.565816
	-0.718184
	0.609626
	-0.253999
	-0.185708
	0.567749
	-0.721727
	0.612847
	-0.257543
	-0.182809
	0.564850
	-0.719795
	0.608015
	-0.256254
	-0.185386
	0.566460
	-0.721727
	0.610914
	-0.256898
	-0.184098
	0.565172
	-0.721083
	0.609303
	-0.256898
	-0.184742
	0.566460
	-0.720761
	0.609303
	-0.257221
	-0.185708
	0.566782
	-0.721727
	0.610914
	-0.255932
	-0.182809
	0.565816
	-0.719795
	0.609303
	-0.254966
	-0.184420
	0.568715
	-0.720761
	0.612525
	-0.258187
	-0.183131
	0.564528
	-0.719150
	0.608015
	-0.255288
	-0.187641
	0.566782
	-0.725271
	0.609948
	-0.259475
	-0.184420
	0.563561
	-0.719795
	0.606404
	-0.255288
	-0.188285
	0.566782
	-0.724304
	0.610914
	-0.261086
	-0.184098
	0.564205
	-0.720117
	0.606404
	-0.255610
	-0.187641
	0.568071
	-0.722694
	0.612203
	-0.258509
	-0.182487
	0.562917
	-0.719795
	0.607371
	-0.253999
	-0.185708
	0.570004
	-0.722050
	0.612525
	-0.258509
	-0.181521
	0.565494
	-0.718184
	0.608015
	-0.253677
	-0.186997
	0.568071
	-0.724627
	0.611558
	-0.259153
	-0.182487
	0.563561
	-0.718828
	0.607371
	-0.256254
	-0.187963
	0.566460
	-0.725593
	0.609948
	-0.260442
	-0.184742
	0.562917
	-0.721405
	0.605438
	-0.257221
	-0.188930
	0.567105
	-0.725271
	0.609948
	-0.260120
	-0.185386
	0.561628
	-0.721727
	0.605760
	-0.254966
	-0.187319
	0.569037
	-0.724627
	0.611881
	-0.258509
	-0.182809
	0.565816
	-0.718184
	0.608337
	-0.253677
	-0.187641
	0.568071
	-0.723660
	0.611236
	-0.258509
	-0.182487
	0.564205
	-0.718506
	0.607049
	-0.255288
	-0.187319
	0.568393
	-0.723982
	0.610914
	-0.259153
	-0.183776
	0.562595
	-0.721405
	0.605760
	-0.256254
	-0.187963
	0.568393
	-0.723660
	0.610270
	-0.260442
	-0.184420
	0.563883
	-0.718828
	0.608015
	-0.253999
	-0.185708
	0.569682
	-0.723338
	0.611881
	-0.258187
	-0.181843
	0.565816
	-0.717540
	0.608981
	-0.252711
	-0.186997
	0.569360
	-0.723660
	0.611881
	-0.256254
	-0.182165
	0.564528
	-0.719473
	0.606404
	-0.253677
	-0.187963
	0.568393
	-0.723660
	0.610914
	-0.258831
	-0.182487
	0.564205
	-0.719473
	0.607049
	-0.253999
	-0.186675
	0.569360
	-0.723338
	0.610592
	-0.259475
	-0.184098
	0.563239
	-0.720761
	0.606726
	-0.253355
	-0.187963
	0.567749
	-0.723982
	0.611236
	-0.258509
	-0.183453
	0.565816
	-0.718828
	0.608015
	-0.253677
	-0.187319
	0.568715
	-0.722694
	0.612847
	-0.257865
	-0.183131
	0.565494
	-0.719473
	0.606726
	-0.254644
	-0.187641
	0.567105
	-0.723982
	0.610592
	-0.258509
	-0.185708
	0.563239
	-0.719150
	0.605760
	-0.255610
	-0.188607
	0.568071
	-0.723982
	0.609626
	-0.257865
	-0.184420
	0.564850
	-0.718828
	0.609626
	-0.253033
	-0.185708
	0.568715
	-0.722372
	0.610914
	-0.255288
	-0.182487
	0.566782
	-0.718828
	0.608659
	-0.254966
	-0.186353
	0.568715
	-0.720117
	0.612203
	-0.255288
	-0.181843
	0.567105
	-0.719795
	0.609303
	-0.253033
	-0.185064
	0.568715
	-0.721083
	0.610592
	-0.256898
	-0.184420
	0.566138
	-0.719795
	0.608337
	-0.253677
	-0.186030
	0.566782
	-0.721727
	0.609948
	-0.257221
	-0.184742
	0.565494
	-0.720117
	0.608981
	-0.254966
	-0.187319
	0.567427
	-0.723338
	0.610914
	-0.256576
	-0.183776
	0.567105
	-0.718184
	0.608337
	-0.253355
	-0.186675
	0.569360
	-0.721405
	0.612525
	-0.255288
	-0.182809
	0.566782
	-0.718184
	0.608337
	-0.253355
	-0.186030
	0.570004
	-0.723016
	0.611236
	-0.257865
	-0.183776
	0.565816
	-0.719150
	0.608015
	-0.253033
	-0.186353
	0.567427
	-0.722694
	0.610592
	-0.257221
	-0.183776
	0.565816
	-0.719795
	0.607693
	-0.254321
	-0.185708
	0.569037
	-0.722372
	0.610270
	-0.256898
	-0.185064
	0.565172
	-0.721727
	0.607049
	-0.254321
	-0.187963
	0.568393
	-0.722050
	0.611236
	-0.257221
	-0.185064
	0.565172
	-0.720117
	0.607371
	-0.254644
	-0.185708
	0.569360
	-0.722050
	0.611558
	-0.255610
	-0.183131
	0.567427
	-0.717862
	0.610592
	-0.253355
	-0.187319
	0.568715
	-0.722372
	0.610914
	-0.254966
	-0.184098
	0.566138
	-0.720117
	0.607693
	-0.253999
	-0.186353
	0.567749
	-0.722050
	0.609626
	-0.256576
	-0.185708
	0.566138
	-0.720761
	0.608659
	-0.254644
	-0.185708
	0.567427
	-0.722694
	0.609303
	-0.256254
	-0.185386
	0.566138
	-0.721083
	0.608981
	-0.254966
	-0.186030
	0.567105
	-0.721727
	0.609303
	-0.254644
	-0.184420
	0.569360
	-0.718184
	0.611236
	-0.253033
	-0.183453
	0.568071
	-0.719473
	0.609948
	-0.253677
	-0.185386
	0.568715
	-0.721083
	0.609948
	-0.256898
	-0.185064
	0.566460
	-0.720117
	0.608659
	-0.254966
	-0.186997
	0.566782
	-0.722372
	0.609626
	-0.256576
	-0.185708
	0.566138
	-0.720761
	0.606404
	-0.254966
	-0.187641
	0.567749
	-0.721727
	0.609948
	-0.255288
	-0.185064
	0.567105
	-0.719473
	0.609948
	-0.253033
	-0.185064
	0.569682
	-0.720439
	0.610914
	-0.255288
	-0.184742
	0.567427
	-0.719795
	0.608981
	-0.253999
	-0.187319
	0.568071
	-0.723338
	0.608981
	-0.257221
	-0.184742
	0.566782
	-0.720117
	0.608015
	-0.254321
	-0.187319
	0.567427
	-0.722694
	0.609303
	-0.256254
	-0.184420
	0.566782
	-0.721405
	0.607371
	-0.253999
	-0.185708
	0.569037
	-0.722050
	0.610592
	-0.255932
	-0.186353
	0.566782
	-0.721083
	0.608981
	-0.254321
	-0.186675
	0.568071
	-0.721405
	0.609948
	-0.254644
	-0.184742
	0.568715
	-0.720117
	0.609626
	-0.253999
	-0.185064
	0.567427
	-0.719150
	0.609948
	-0.253355
	-0.185708
	0.568393
	-0.721727
	0.610270
	-0.256254
	-0.186997
	0.565494
	-0.720439
	0.608659
	-0.253677
	-0.186675
	0.566460
	-0.722694
	0.609626
	-0.256898
	-0.185386
	0.567105
	-0.719795
	0.608337
	-0.254644
	-0.187963
	0.568393
	-0.721727
	0.610914
	-0.254966
	-0.184098
	0.568715
	-0.719795
	0.608337
	-0.253033
	-0.186675
	0.568715
	-0.722694
	0.610270
	-0.257221
	-0.185064
	0.565172
	-0.719795
	0.608659
	-0.253033
	-0.187319
	0.569360
	-0.723660
	0.610914
	-0.257221
	-0.185708
	0.565816
	-0.720117
	0.607371
	-0.252389
	-0.187963
	0.569037
	-0.723016
	0.610270
	-0.256254
	-0.183131
	0.567105
	-0.718828
	0.605760
	-0.253999
	-0.188285
	0.569682
	-0.722694
	0.611558
	-0.255610
	-0.184742
	0.565816
	-0.719150
	0.607049
	-0.253033
	-0.187963
	0.570004
	-0.722372
	0.610270
	-0.255932
	-0.184098
	0.566460
	-0.717862
	0.608659
	-0.250778
	-0.186353
	0.569682
	-0.722694
	0.610270
	-0.255610
	-0.184420
	0.566782
	-0.718506
	0.608659
	-0.253033
	-0.187641
	0.569037
	-0.722372
	0.609948
	-0.254966
	-0.185386
	0.566460
	-0.721727
	0.606082
	-0.254966
	-0.188607
	0.568071
	-0.722694
	0.610592
	-0.256576
	-0.185708
	0.565816
	-0.720117
	0.608337
	-0.253033
	-0.186997
	0.570004
	-0.721405
	0.610270
	-0.254321
	-0.184420
	0.568393
	-0.717540
	0.608981
	-0.251744
	-0.187641
	0.569037
	-0.721727
	0.610592
	-0.254321
	-0.184420
	0.567105
	-0.719473
	0.608981
	-0.253677
	-0.187963
	0.569360
	-0.722050
	0.609303
	-0.255288
	-0.185386
	0.567427
	-0.719795
	0.608659
	-0.253355
	-0.186675
	0.569360
	-0.719795
	0.611236
	-0.253999
	-0.183453
	0.568715
	-0.718184
	0.609626
	-0.252711
	-0.185708
	0.570004
	-0.721727
	0.609626
	-0.254321
	-0.183453
	0.569682
	-0.717862
	0.608981
	-0.251744
	-0.186997
	0.568715
	-0.722694
	0.610270
	-0.254966
	-0.184742
	0.566460
	-0.720761
	0.606726
	-0.254966
	-0.187641
	0.569037
	-0.720761
	0.610270
	-0.253999
	-0.184420
	0.567749
	-0.718506
	0.610914
	-0.252067
	-0.185386
	0.570326
	-0.719473
	0.608659
	-0.253355
	-0.186997
	0.568715
	-0.721083
	0.609626
	-0.253999
	-0.185708
	0.565816
	-0.721405
	0.607693
	-0.254321
	-0.186675
	0.569360
	-0.721083
	0.610270
	-0.254966
	-0.185708
	0.567105
	-0.718828
	0.609303
	-0.251744
	-0.186997
	0.570326
	-0.721727
	0.611558
	-0.253999
	-0.183776
	0.568715
	-0.717862
	0.608337
	-0.252067
	-0.188607
	0.569037
	-0.723016
	0.610270
	-0.256576
	-0.186675
	0.566138
	-0.720439
	0.607049
	-0.253355
	-0.188930
	0.569360
	-0.723982
	0.609303
	-0.255932
	-0.185708
	0.565172
	-0.720117
	0.606404
	-0.253033
	-0.187963
	0.570326
	-0.721727
	0.609626
	-0.255288
	-0.186030
	0.567749
	-0.720117
	0.607693
	-0.252711
	-0.187963
	0.568715
	-0.721727
	0.609303
	-0.254644
	-0.185708
	0.568071
	-0.719795
	0.608337
	-0.253677
	-0.186353
	0.569037
	-0.720439
	0.609948
	-0.253355
	-0.184742
	0.568071
	-0.721083
	0.608337
	-0.253355
	-0.187319
	0.567427
	-0.722050
	0.606404
	-0.255610
	-0.188930
	0.565816
	-0.722694
	0.607693
	-0.254321
	-0.186353
	0.568393
	-0.720761
	0.608337
	-0.252711
	-0.187319
	0.569682
	-0.721405
	0.609948
	-0.253033
	-0.185708
	0.568071
	-0.719150
	0.608337
	-0.250778
	-0.187319
	0.570004
	-0.722694
	0.609303
	-0.255288
	-0.186675
	0.566782
	-0.719795
	0.606726
	-0.253677
	-0.189252
	0.568071
	-0.722372
	0.608659
	-0.255288
	-0.186997
	0.567749
	-0.719473
	0.608981
	-0.253033
	-0.186997
	0.568715
	-0.721083
	0.609948
	-0.252711
	-0.185386
	0.569037
	-0.720439
	0.609303
	-0.254321
	-0.186675
	0.568393
	-0.720761
	0.608659
	-0.252711
	-0.187641
	0.568393
	-0.721083
	0.609626
	-0.253355
	-0.186997
	0.566782
	-0.721727
	0.605760
	-0.255288
	-0.188607
	0.568715
	-0.722050
	0.609303
	-0.254644
	-0.186353
	0.567749
	-0.719150
	0.608015
	-0.251744
	-0.187319
	0.571292
	-0.721405
	0.609626
	-0.254644
	-0.184742
	0.566782
	-0.718828
	0.607693
	-0.250456
	-0.187641
	0.571292
	-0.721727
	0.611236
	-0.254966
	-0.186030
	0.567749
	-0.718828
	0.607049
	-0.251744
	-0.188607
	0.570004
	-0.722694
	0.610592
	-0.255288
	-0.185386
	0.566460
	-0.721083
	0.605438
	-0.252389
	-0.189574
	0.569037
	-0.723338
	0.609626
	-0.257543
	-0.187319
	0.564528
	-0.720117
	0.605438
	-0.252711
	-0.189896
	0.570004
	-0.723982
	0.610270
	-0.254966
	-0.185064
	0.566782
	-0.718506
	0.607693
	-0.249812
	-0.188285
	0.571614
	-0.722372
	0.610914
	-0.255288
	-0.186353
	0.567427
	-0.719473
	0.606726
	-0.252389
	-0.189574
	0.570326
	-0.722050
	0.611236
	-0.253355
	-0.185386
	0.567427
	-0.720117
	0.606726
	-0.251100
	-0.187319
	0.570648
	-0.720117
	0.610270
	-0.254644
	-0.186675
	0.568071
	-0.720117
	0.608015
	-0.251744
	-0.188607
	0.568393
	-0.722050
	0.608337
	-0.252711
	-0.186997
	0.568715
	-0.721405
	0.608337
	-0.254644
	-0.187319
	0.568715
	-0.719473
	0.608337
	-0.251744
	-0.186675
	0.570326
	-0.721083
	0.610270
	-0.253033
	-0.185064
	0.569360
	-0.718828
	0.608337
	-0.251744
	-0.190540
	0.569682
	-0.723982
	0.609303
	-0.255288
	-0.186030
	0.567105
	-0.720439
	0.604794
	-0.252067
	-0.190862
	0.570970
	-0.723016
	0.609626
	-0.256576
	-0.187319
	0.565494
	-0.719473
	0.605116
	-0.252389
	-0.189574
	0.570326
	-0.723982
	0.609303
	-0.255610
	-0.185386
	0.566138
	-0.719473
	0.605438
	-0.250456
	-0.189896
	0.570004
	-0.723338
	0.610270
	-0.254966
	-0.186030
	0.567749
	-0.718828
	0.606726
	-0.251100
	-0.189896
	0.570970
	-0.723016
	0.610270
	-0.254966
	-0.185064
	0.565494
	-0.719473
	0.605116
	-0.251744
	-0.191507
	0.570004
	-0.723338
	0.609303
	-0.256254
	-0.187319
	0.565172
	-0.719795
	0.605116
	-0.250778
	-0.190218
	0.570970
	-0.724949
	0.609626
	-0.255932
	-0.185708
	0.567427
	-0.718184
	0.607693
	-0.250456
	-0.189574
	0.571937
	-0.722694
	0.610914
	-0.254321
	-0.184742
	0.567105
	-0.719150
	0.605438
	-0.251744
	-0.191185
	0.569360
	-0.723982
	0.608337
	-0.257221
	-0.187319
	0.565172
	-0.720761
	0.603827
	-0.251422
	-0.190862
	0.570326
	-0.723982
	0.609948
	-0.255932
	-0.186997
	0.566460
	-0.719795
	0.605760
	-0.251744
	-0.190218
	0.570648
	-0.723338
	0.609303
	-0.254966
	-0.185064
	0.568715
	-0.716573
	0.607693
	-0.249490
	-0.189252
	0.571614
	-0.722050
	0.612525
	-0.254321
	-0.185386
	0.566782
	-0.719795
	0.604472
	-0.251100
	-0.190218
	0.570648
	-0.723338
	0.609626
	-0.254966
	-0.187319
	0.566460
	-0.720761
	0.604794
	-0.251744
	-0.190540
	0.571614
	-0.723338
	0.608659
	-0.256898
	-0.188607
	0.565494
	-0.720439
	0.605116
	-0.251744
	-0.191185
	0.569037
	-0.724304
	0.608981
	-0.255288
	-0.186997
	0.567427
	-0.719150
	0.606404
	-0.251422
	-0.188930
	0.570970
	-0.722050
	0.610270
	-0.252067
	-0.185064
	0.569360
	-0.718184
	0.608659
	-0.250456
	-0.188607
	0.571937
	-0.721405
	0.609626
	-0.254644
	-0.187641
	0.567427
	-0.720439
	0.606082
	-0.251100
	-0.189574
	0.571292
	-0.722372
	0.608659
	-0.254644
	-0.186997
	0.567749
	-0.718506
	0.606404
	-0.250778
	-0.191507
	0.570004
	-0.723982
	0.609626
	-0.255288
	-0.187641
	0.567427
	-0.720439
	0.604794
	-0.251744
	-0.191507
	0.570970
	-0.722694
	0.610592
	-0.253677
	-0.186030
	0.567749
	-0.718828
	0.605760
	-0.251100
	-0.189896
	0.570648
	-0.723338
	0.608337
	-0.254644
	-0.187319
	0.568071
	-0.718506
	0.607049
	-0.250456
	-0.189252
	0.571292
	-0.723016
	0.608337
	-0.253677
	-0.186997
	0.567749
	-0.720439
	0.606404
	-0.252389
	-0.190218
	0.568715
	-0.723338
	0.607693
	-0.254644
	-0.187963
	0.568071
	-0.721083
	0.605438
	-0.253033
	-0.189896
	0.569360
	-0.722050
	0.607049
	-0.252067
	-0.189574
	0.569360
	-0.721083
	0.608659
	-0.251422
	-0.187641
	0.569037
	-0.719473
	0.605760
	-0.251744
	-0.189896
	0.570648
	-0.721727
	0.609303
	-0.253355
	-0.186675
	0.567427
	-0.719473
	0.606404
	-0.249812
	-0.190540
	0.571937
	-0.722372
	0.609948
	-0.254321
	-0.186030
	0.567427
	-0.718828
	0.605438
	-0.249812
	-0.190540
	0.570648
	-0.723982
	0.608015
	-0.256576
	-0.187641
	0.566138
	-0.719473
	0.604794
	-0.251100
	-0.191829
	0.571292
	-0.723982
	0.608981
	-0.254966
	-0.187641
	0.565816
	-0.721083
	0.603183
	-0.252389
	-0.191507
	0.571614
	-0.722694
	0.610270
	-0.254321
	-0.187319
	0.567105
	-0.719795
	0.605760
	-0.250456
	-0.190218
	0.571937
	-0.723016
	0.608015
	-0.254644
	-0.186675
	0.567105
	-0.718184
	0.607049
	-0.248201
	-0.189252
	0.572903
	-0.721727
	0.610592
	-0.253355
	-0.185708
	0.568715
	-0.718184
	0.606082
	-0.250134
	-0.191185
	0.571614
	-0.722372
	0.609948
	-0.254321
	-0.186675
	0.566460
	-0.719473
	0.604472
	-0.251422
	-0.191185
	0.570004
	-0.723338
	0.608659
	-0.256254
	-0.189574
	0.565494
	-0.721083
	0.604472
	-0.250456
	-0.192151
	0.570970
	-0.724949
	0.607371
	-0.254966
	-0.187319
	0.567749
	-0.720117
	0.604472
	-0.250778
	-0.190862
	0.570326
	-0.722372
	0.608659
	-0.253033
	-0.187963
	0.568715
	-0.720439
	0.606726
	-0.250778
	-0.187963
	0.572259
	-0.719473
	0.609948
	-0.250456
	-0.187319
	0.570648
	-0.718506
	0.608659
	-0.251100
	-0.187641
	0.570970
	-0.720117
	0.607693
	-0.252711
	-0.190540
	0.569037
	-0.723016
	0.608659
	-0.252711
	-0.188930
	0.567749
	-0.722050
	0.604794
	-0.251422
	-0.191507
	0.570326
	-0.723982
	0.607371
	-0.254966
	-0.189574
	0.566138
	-0.719795
	0.605760
	-0.249167
	-0.189896
	0.571937
	-0.722050
	0.608659
	-0.253033
	-0.187319
	0.569037
	-0.720117
	0.606726
	-0.249167
	-0.189252
	0.571937
	-0.723016
	0.608981
	-0.252067
	-0.186675
	0.570004
	-0.719795
	0.606404
	-0.250134
	-0.190862
	0.570648
	-0.723660
	0.608337
	-0.253677
	-0.189896
	0.566460
	-0.721405
	0.604794
	-0.249490
	-0.190540
	0.571614
	-0.722050
	0.607693
	-0.254644
	-0.189252
	0.567427
	-0.719795
	0.605438
	-0.250134
	-0.191185
	0.570326
	-0.723982
	0.608015
	-0.254644
	-0.188285
	0.567427
	-0.719150
	0.605116
	-0.250778
	-0.192151
	0.572259
	-0.723660
	0.608659
	-0.253677
	-0.186353
	0.567749
	-0.718828
	0.605438
	-0.250134
	-0.192473
	0.570326
	-0.723982
	0.608015
	-0.254644
	-0.188607
	0.566138
	-0.719473
	0.604472
	-0.251100
	-0.191829
	0.572259
	-0.723982
	0.607693
	-0.254644
	-0.187641
	0.567749
	-0.719150
	0.605760
	-0.248523
	-0.191507
	0.572581
	-0.723660
	0.608981
	-0.253033
	-0.186675
	0.568071
	-0.719473
	0.602861
	-0.251422
	-0.192151
	0.571292
	-0.724304
	0.608659
	-0.253999
	-0.188285
	0.566782
	-0.720117
	0.603183
	-0.251100
	-0.193117
	0.570326
	-0.723660
	0.608337
	-0.255288
	-0.188285
	0.566782
	-0.720761
	0.604149
	-0.250778
	-0.192473
	0.571292
	-0.724304
	0.608659
	-0.253677
	-0.187963
	0.568715
	-0.718828
	0.606082
	-0.249167
	-0.191185
	0.572581
	-0.722694
	0.609948
	-0.252067
	-0.186353
	0.569360
	-0.719150
	0.604794
	-0.249490
	-0.191185
	0.572903
	-0.722372
	0.610592
	-0.252389
	-0.187963
	0.568071
	-0.718506
	0.605116
	-0.249490
	-0.190862
	0.571937
	-0.724949
	0.606726
	-0.255288
	-0.188607
	0.566138
	-0.721083
	0.604149
	-0.250134
	-0.193117
	0.571292
	-0.724304
	0.608337
	-0.254321
	-0.188930
	0.567749
	-0.719473
	0.605116
	-0.249812
	-0.192473
	0.572903
	-0.723338
	0.609626
	-0.251422
	-0.186353
	0.569360
	-0.718828
	0.605760
	-0.248523
	-0.190218
	0.573225
	-0.722050
	0.608337
	-0.253677
	-0.187963
	0.568715
	-0.719795
	0.604794
	-0.249490
	-0.190540
	0.571614
	-0.723660
	0.607693
	-0.252389
	-0.188930
	0.569037
	-0.720761
	0.606082
	-0.250456
	-0.191829
	0.570004
	-0.722694
	0.606404
	-0.251100
	-0.190218
	0.570648
	-0.721727
	0.606082
	-0.252067
	-0.191185
	0.569037
	-0.720439
	0.607049
	-0.249812
	-0.189896
	0.570004
	-0.722372
	0.607371
	-0.251100
	-0.188285
	0.570326
	-0.719795
	0.606082
	-0.249490
	-0.189252
	0.572903
	-0.720761
	0.608015
	-0.251422
	-0.189574
	0.568715
	-0.721405
	0.606726
	-0.250778
	-0.189896
	0.570326
	-0.721405
	0.606404
	-0.252067
	-0.191507
	0.569037
	-0.722050
	0.607049
	-0.251744
	-0.189574
	0.569360
	-0.720439
	0.605438
	-0.249490
	-0.191829
	0.571614
	-0.722372
	0.608659
	-0.251422
	-0.189574
	0.569037
	-0.720761
	0.606082
	-0.249812
	-0.190862
	0.571614
	-0.722694
	0.608015
	-0.253033
	-0.188607
	0.569037
	-0.719795
	0.605438
	-0.249490
	-0.191507
	0.570970
	-0.723016
	0.608981
	-0.251422
	-0.187319
	0.569360
	-0.719150
	0.605438
	-0.248845
	-0.192151
	0.572903
	-0.723982
	0.607371
	-0.253355
	-0.188607
	0.567105
	-0.720117
	0.603827
	-0.248845
	-0.193117
	0.572581
	-0.723338
	0.608981
	-0.253033
	-0.188930
	0.567427
	-0.720761
	0.603505
	-0.249167
	-0.192473
	0.570970
	-0.724304
	0.606082
	-0.253677
	-0.190218
	0.568071
	-0.720117
	0.604472
	-0.250456
	-0.192795
	0.570326
	-0.724627
	0.607371
	-0.252067
	-0.189574
	0.568393
	-0.721083
	0.604794
	-0.250456
	-0.192795
	0.571292
	-0.723016
	0.606726
	-0.250778
	-0.190540
	0.570326
	-0.720117
	0.608981
	-0.248845
	-0.187641
	0.572903
	-0.718184
	0.607693
	-0.249167
	-0.190540
	0.570970
	-0.722372
	0.607371
	-0.252067
	-0.189896
	0.568071
	-0.721083
	0.604472
	-0.249812
	-0.192473
	0.572259
	-0.723982
	0.607371
	-0.254321
	-0.191185
	0.566782
	-0.721083
	0.603827
	-0.249167
	-0.193117
	0.571614
	-0.723982
	0.607693
	-0.254321
	-0.189574
	0.567427
	-0.720117
	0.603827
	-0.249167
	-0.192795
	0.571937
	-0.723660
	0.608337
	-0.252711
	-0.188607
	0.569037
	-0.720117
	0.605116
	-0.248523
	-0.191507
	0.574514
	-0.721405
	0.609626
	-0.249490
	-0.187641
	0.570648
	-0.719795
	0.606404
	-0.248201
	-0.189574
	0.572581
	-0.721405
	0.606726
	-0.251422
	-0.189896
	0.569682
	-0.720439
	0.605760
	-0.249812
	-0.191829
	0.570004
	-0.723016
	0.606082
	-0.251100
	-0.190862
	0.569682
	-0.722050
	0.604149
	-0.252067
	-0.193117
	0.569682
	-0.722372
	0.606726
	-0.250778
	-0.190218
	0.569682
	-0.721727
	0.607049
	-0.248845
	-0.189574
	0.571614
	-0.720117
	0.607049
	-0.250456
	-0.190540
	0.570648
	-0.721083
	0.606404
	-0.248845
	-0.189896
	0.572581
	-0.722050
	0.608337
	-0.250778
	-0.189252
	0.569360
	-0.718506
	0.606082
	-0.248201
	-0.192795
	0.571937
	-0.723660
	0.607049
	-0.253999
	-0.190862
	0.567749
	-0.722372
	0.602539
	-0.251422
	-0.195050
	0.571292
	-0.725271
	0.605760
	-0.254321
	-0.190218
	0.566782
	-0.720761
	0.602217
	-0.248523
	-0.193439
	0.571937
	-0.723660
	0.607371
	-0.253033
	-0.188930
	0.569037
	-0.719795
	0.603827
	-0.248201
	-0.193117
	0.573225
	-0.723982
	0.608659
	-0.253033
	-0.189252
	0.568071
	-0.718828
	0.604149
	-0.247879
	-0.192473
	0.572903
	-0.722372
	0.609948
	-0.251422
	-0.187963
	0.568071
	-0.720439
	0.603827
	-0.248201
	-0.193439
	0.571937
	-0.723982
	0.607371
	-0.253677
	-0.190540
	0.566782
	-0.720761
	0.603183
	-0.249812
	-0.195050
	0.569682
	-0.725593
	0.606726
	-0.253999
	-0.191185
	0.567427
	-0.721405
	0.602861
	-0.249812
	-0.195050
	0.570970
	-0.724304
	0.606082
	-0.252389
	-0.190540
	0.569037
	-0.719795
	0.603827
	-0.249490
	-0.193117
	0.572259
	-0.722694
	0.607371
	-0.251422
	-0.191507
	0.568715
	-0.722050
	0.604794
	-0.249167
	-0.191829
	0.572581
	-0.722050
	0.607371
	-0.251422
	-0.189574
	0.569360
	-0.719473
	0.604794
	-0.249490
	-0.193117
	0.571614
	-0.723982
	0.607049
	-0.252711
	-0.190862
	0.568393
	-0.721083
	0.604794
	-0.250134
	-0.194728
	0.570970
	-0.724627
	0.605438
	-0.252389
	-0.191507
	0.568393
	-0.722050
	0.602861
	-0.250134
	-0.193439
	0.572581
	-0.721083
	0.608015
	-0.251422
	-0.189896
	0.569682
	-0.719473
	0.605760
	-0.247879
	-0.190540
	0.573225
	-0.721083
	0.607693
	-0.249812
	-0.189896
	0.570326
	-0.719795
	0.604794
	-0.248845
	-0.193117
	0.572259
	-0.723338
	0.607371
	-0.250134
	-0.189252
	0.569360
	-0.720117
	0.603505
	-0.249167
	-0.193439
	0.571937
	-0.723338
	0.608015
	-0.251422
	-0.189252
	0.568393
	-0.721083
	0.603505
	-0.249490
	-0.193762
	0.570970
	-0.722372
	0.606404
	-0.252389
	-0.191829
	0.568715
	-0.722372
	0.604472
	-0.248523
	-0.192151
	0.572581
	-0.722050
	0.606726
	-0.250778
	-0.189896
	0.571614
	-0.718506
	0.607049
	-0.247879
	-0.191507
	0.572259
	-0.721405
	0.607693
	-0.249490
	-0.189896
	0.571614
	-0.719795
	0.605760
	-0.248845
	-0.189896
	0.572259
	-0.720439
	0.605760
	-0.249167
	-0.192151
	0.571292
	-0.722050
	0.605760
	-0.250456
	-0.190862
	0.570970
	-0.719473
	0.605116
	-0.248201
	-0.192151
	0.572581
	-0.722050
	0.607693
	-0.249167
	-0.188930
	0.571614
	-0.720439
	0.605438
	-0.248845
	-0.192473
	0.572903
	-0.722050
	0.605760
	-0.251744
	-0.192151
	0.568715
	-0.720761
	0.604794
	-0.247879
	-0.191829
	0.571937
	-0.723016
	0.606404
	-0.250778
	-0.189896
	0.568715
	-0.720439
	0.603183
	-0.249812
	-0.195372
	0.572259
	-0.725271
	0.606404
	-0.252389
	-0.190540
	0.569360
	-0.720117
	0.602861
	-0.247235
	-0.195372
	0.572581
	-0.723982
	0.608015
	-0.251100
	-0.189896
	0.569037
	-0.718828
	0.603827
	-0.248201
	-0.193439
	0.573547
	-0.723982
	0.607371
	-0.252389
	-0.191507
	0.569360
	-0.719795
	0.603827
	-0.248523
	-0.195050
	0.570326
	-0.724949
	0.605438
	-0.251744
	-0.191507
	0.569682
	-0.721083
	0.603827
	-0.250456
	-0.192795
	0.571937
	-0.721727
	0.607049
	-0.250456
	-0.191829
	0.570326
	-0.721727
	0.604794
	-0.248845
	-0.191507
	0.572581
	-0.720117
	0.607693
	-0.247557
	-0.190862
	0.572581
	-0.720117
	0.606726
	-0.249167
	-0.190540
	0.572259
	-0.720761
	0.604794
	-0.248523
	-0.192473
	0.571937
	-0.723016
	0.607049
	-0.250778
	-0.191829
	0.568715
	-0.721083
	0.603183
	-0.248523
	-0.194084
	0.573225
	-0.723982
	0.605760
	-0.251100
	-0.190862
	0.569037
	-0.719150
	0.603505
	-0.247557
	-0.194728
	0.573869
	-0.721727
	0.608337
	-0.250456
	-0.188930
	0.570326
	-0.718506
	0.603505
	-0.246913
	-0.194728
	0.573869
	-0.724627
	0.607049
	-0.251422
	-0.190862
	0.567749
	-0.722050
	0.601250
	-0.248523
	-0.195050
	0.572259
	-0.723660
	0.606726
	-0.251744
	-0.191829
	0.569360
	-0.720761
	0.603505
	-0.247557
	-0.193117
	0.572581
	-0.723016
	0.605760
	-0.249167
	-0.190862
	0.572259
	-0.720439
	0.606726
	-0.247879
	-0.192473
	0.571614
	-0.720439
	0.605760
	-0.248845
	-0.193117
	0.571937
	-0.722050
	0.605760
	-0.249490
	-0.191185
	0.570326
	-0.719473
	0.604794
	-0.247557
	-0.193117
	0.572259
	-0.723338
	0.606726
	-0.250456
	-0.190862
	0.570648
	-0.720439
	0.603183
	-0.248523
	-0.194406
	0.572903
	-0.722372
	0.607371
	-0.247879
	-0.189896
	0.570648
	-0.719150
	0.604472
	-0.246590
	-0.193117
	0.574191
	-0.721727
	0.607371
	-0.249490
	-0.190540
	0.570648
	-0.720439
	0.605438
	-0.246913
	-0.193117
	0.572259
	-0.723660
	0.606082
	-0.250134
	-0.191185
	0.569360
	-0.720439
	0.603183
	-0.248845
	-0.195372
	0.571937
	-0.724304
	0.605116
	-0.251100
	-0.189896
	0.570970
	-0.719150
	0.604472
	-0.247557
	-0.194728
	0.573547
	-0.724304
	0.606726
	-0.251100
	-0.191829
	0.568715
	-0.719795
	0.603183
	-0.246268
	-0.194406
	0.573225
	-0.722372
	0.607371
	-0.250778
	-0.189896
	0.570326
	-0.717540
	0.604794
	-0.244980
	-0.193762
	0.574514
	-0.723982
	0.608981
	-0.250134
	-0.189574
	0.570970
	-0.719150
	0.602861
	-0.247879
	-0.194728
	0.573547
	-0.723338
	0.608337
	-0.249812
	-0.190540
	0.569682
	-0.718184
	0.603827
	-0.246913
	-0.195050
	0.572903
	-0.723338
	0.607049
	-0.251100
	-0.192151
	0.568393
	-0.720439
	0.601572
	-0.248523
	-0.196339
	0.572903
	-0.725593
	0.606082
	-0.252067
	-0.191507
	0.568393
	-0.719795
	0.601895
	-0.248845
	-0.196983
	0.572903
	-0.723982
	0.607693
	-0.251100
	-0.189574
	0.570326
	-0.719795
	0.602217
	-0.246913
	-0.195372
	0.573869
	-0.723016
	0.608015
	-0.249490
	-0.190218
	0.569682
	-0.718828
	0.603183
	-0.246913
	-0.193762
	0.572903
	-0.723660
	0.606726
	-0.251100
	-0.192795
	0.568715
	-0.721083
	0.602861
	-0.247557
	-0.195372
	0.571937
	-0.724304
	0.604149
	-0.251744
	-0.193117
	0.569360
	-0.721083
	0.601572
	-0.248845
	-0.196339
	0.572581
	-0.724627
	0.606082
	-0.249812
	-0.193117
	0.570326
	-0.722372
	0.602539
	-0.248845
	-0.194406
	0.572903
	-0.722372
	0.606082
	-0.249167
	-0.191185
	0.572259
	-0.719795
	0.605116
	-0.246268
	-0.193117
	0.573547
	-0.721405
	0.606404
	-0.248845
	-0.191829
	0.571937
	-0.720761
	0.604794
	-0.246913
	-0.193439
	0.571937
	-0.720761
	0.605438
	-0.247557
	-0.192473
	0.573869
	-0.721405
	0.606082
	-0.249812
	-0.193762
	0.569360
	-0.721083
	0.602539
	-0.248201
	-0.195694
	0.571614
	-0.724949
	0.605116
	-0.251100
	-0.191185
	0.569360
	-0.719473
	0.602861
	-0.247235
	-0.195694
	0.574836
	-0.723982
	0.606726
	-0.251100
	-0.191185
	0.569037
	-0.719795
	0.603505
	-0.245624
	-0.194084
	0.575480
	-0.722694
	0.608015
	-0.251100
	-0.191185
	0.570648
	-0.719795
	0.602217
	-0.246268
	-0.195694
	0.575158
	-0.724304
	0.606404
	-0.251100
	-0.190862
	0.570004
	-0.719795
	0.603505
	-0.245946
	-0.195372
	0.573225
	-0.725271
	0.604472
	-0.252389
	-0.194406
	0.566782
	-0.722694
	0.598995
	-0.248523
	-0.197949
	0.572581
	-0.725593
	0.604794
	-0.253033
	-0.193762
	0.566460
	-0.721727
	0.602217
	-0.247235
	-0.196339
	0.573547
	-0.724304
	0.606726
	-0.251422
	-0.191507
	0.570326
	-0.718506
	0.603827
	-0.245302
	-0.194406
	0.574514
	-0.723016
	0.608337
	-0.249167
	-0.190218
	0.570648
	-0.718506
	0.603505
	-0.246590
	-0.196016
	0.573225
	-0.723982
	0.606082
	-0.250134
	-0.190540
	0.569682
	-0.720761
	0.602217
	-0.246590
	-0.196983
	0.572903
	-0.724627
	0.606082
	-0.251422
	-0.193439
	0.566782
	-0.721405
	0.601250
	-0.246913
	-0.196661
	0.573225
	-0.724304
	0.605760
	-0.251422
	-0.192795
	0.569360
	-0.719795
	0.602539
	-0.246268
	-0.196661
	0.574191
	-0.723338
	0.607049
	-0.248845
	-0.190862
	0.571292
	-0.718184
	0.603505
	-0.244658
	-0.195050
	0.574836
	-0.723660
	0.607693
	-0.250134
	-0.191507
	0.570004
	-0.720439
	0.601895
	-0.246913
	-0.196339
	0.574191
	-0.723982
	0.605760
	-0.251744
	-0.193117
	0.569037
	-0.721083
	0.601250
	-0.246268
	-0.196016
	0.572903
	-0.725271
	0.605116
	-0.251744
	-0.193117
	0.568715
	-0.720761
	0.601250
	-0.247235
	-0.196983
	0.573547
	-0.724304
	0.607049
	-0.248523
	-0.190862
	0.571614
	-0.719150
	0.602861
	-0.244013
	-0.194084
	0.575480
	-0.722050
	0.607371
	-0.249490
	-0.191829
	0.570004
	-0.719473
	0.603183
	-0.244658
	-0.194084
	0.574836
	-0.723660
	0.606726
	-0.249490
	-0.191829
	0.570004
	-0.719795
	0.601895
	-0.246913
	-0.196661
	0.572903
	-0.724627
	0.605438
	-0.250456
	-0.192795
	0.569682
	-0.719473
	0.601895
	-0.246590
	-0.196339
	0.574191
	-0.723016
	0.606726
	-0.248845
	-0.192151
	0.570326
	-0.721083
	0.602861
	-0.245302
	-0.194728
	0.574191
	-0.722694
	0.605760
	-0.249490
	-0.192473
	0.571292
	-0.718506
	0.605116
	-0.244336
	-0.193439
	0.575158
	-0.723338
	0.607049
	-0.247235
	-0.191185
	0.572903
	-0.718506
	0.604472
	-0.244980
	-0.193439
	0.576124
	-0.720761
	0.607049
	-0.247879
	-0.192151
	0.570970
	-0.719795
	0.602539
	-0.246590
	-0.195372
	0.573225
	-0.722694
	0.605116
	-0.247879
	-0.193762
	0.571937
	-0.722050
	0.603183
	-0.246913
	-0.193762
	0.573869
	-0.720761
	0.604794
	-0.246590
	-0.193439
	0.573225
	-0.720117
	0.607371
	-0.246590
	-0.191829
	0.572259
	-0.720117
	0.604472
	-0.244980
	-0.195050
	0.574836
	-0.722694
	0.607049
	-0.248523
	-0.193117
	0.571614
	-0.719473
	0.604149
	-0.243691
	-0.195050
	0.575802
	-0.722372
	0.607693
	-0.248845
	-0.190862
	0.571937
	-0.719795
	0.603505
	-0.245624
	-0.197949
	0.573869
	-0.724627
	0.605760
	-0.250134
	-0.191829
	0.570326
	-0.720761
	0.600928
	-0.245946
	-0.196661
	0.574836
	-0.723016
	0.606404
	-0.249490
	-0.193439
	0.570648
	-0.719473
	0.603505
	-0.244658
	-0.194728
	0.575480
	-0.721405
	0.605760
	-0.246913
	-0.192151
	0.573225
	-0.718828
	0.604472
	-0.244980
	-0.193439
	0.574514
	-0.721405
	0.606082
	-0.246268
	-0.194084
	0.574836
	-0.720439
	0.604472
	-0.246590
	-0.194084
	0.572259
	-0.719473
	0.605438
	-0.245624
	-0.193439
	0.573547
	-0.722050
	0.606404
	-0.246590
	-0.192473
	0.574514
	-0.719150
	0.604149
	-0.245302
	-0.196016
	0.574191
	-0.723982
	0.605760
	-0.249812
	-0.192473
	0.570970
	-0.720761
	0.601895
	-0.244658
	-0.196339
	0.575480
	-0.723338
	0.606726
	-0.248201
	-0.191829
	0.570970
	-0.720117
	0.602861
	-0.244336
	-0.195050
	0.576768
	-0.722372
	0.607049
	-0.248523
	-0.191829
	0.570648
	-0.719150
	0.602861
	-0.243369
	-0.196661
	0.574191
	-0.724949
	0.606082
	-0.250456
	-0.192473
	0.570326
	-0.719795
	0.601895
	-0.246268
	-0.196339
	0.574836
	-0.721727
	0.606726
	-0.247557
	-0.193117
	0.571292
	-0.719795
	0.604472
	-0.244658
	-0.193762
	0.574836
	-0.721083
	0.603827
	-0.247235
	-0.195050
	0.573225
	-0.720117
	0.605116
	-0.245302
	-0.193117
	0.573869
	-0.720761
	0.604794
	-0.245946
	-0.194084
	0.573869
	-0.721083
	0.605438
	-0.247557
	-0.193439
	0.573547
	-0.720117
	0.603827
	-0.244658
	-0.194728
	0.575802
	-0.722372
	0.604472
	-0.249490
	-0.193439
	0.570004
	-0.720761
	0.600928
	-0.246268
	-0.197949
	0.573225
	-0.723982
	0.605760
	-0.248523
	-0.191507
	0.571937
	-0.718184
	0.602861
	-0.244658
	-0.196983
	0.575802
	-0.723338
	0.606082
	-0.247557
	-0.192151
	0.570004
	-0.718184
	0.601895
	-0.243691
	-0.195694
	0.574836
	-0.723338
	0.606726
	-0.249167
	-0.193117
	0.570970
	-0.719473
	0.601250
	-0.244013
	-0.196661
	0.574191
	-0.724949
	0.604794
	-0.249812
	-0.193439
	0.570970
	-0.719473
	0.602217
	-0.246913
	-0.195694
	0.573869
	-0.723660
	0.606404
	-0.247235
	-0.193439
	0.571614
	-0.721083
	0.602539
	-0.245302
	-0.195372
	0.574836
	-0.720761
	0.605438
	-0.246590
	-0.194084
	0.573869
	-0.720117
	0.604794
	-0.245946
	-0.193762
	0.574514
	-0.720117
	0.603505
	-0.244980
	-0.194406
	0.575158
	-0.720761
	0.606726
	-0.246268
	-0.193117
	0.572581
	-0.720761
	0.602217
	-0.245624
	-0.195050
	0.574191
	-0.722694
	0.603827
	-0.248523
	-0.194406
	0.571614
	-0.721083
	0.603183
	-0.245302
	-0.196983
	0.573225
	-0.723016
	0.604472
	-0.248523
	-0.193762
	0.571292
	-0.719795
	0.601895
	-0.245302
	-0.196661
	0.576124
	-0.722050
	0.606726
	-0.247879
	-0.191829
	0.571614
	-0.719150
	0.602539
	-0.243047
	-0.195694
	0.576124
	-0.721405
	0.608015
	-0.246913
	-0.191829
	0.572259
	-0.718506
	0.600606
	-0.244336
	-0.197305
	0.574514
	-0.723982
	0.604794
	-0.248523
	-0.193762
	0.572259
	-0.719150
	0.603183
	-0.245302
	-0.196339
	0.573869
	-0.723338
	0.602861
	-0.247557
	-0.195372
	0.571292
	-0.722372
	0.601250
	-0.246913
	-0.196016
	0.574836
	-0.720761
	0.603505
	-0.245302
	-0.195372
	0.573869
	-0.722372
	0.604794
	-0.245624
	-0.193117
	0.574191
	-0.718828
	0.603827
	-0.244658
	-0.195050
	0.576124
	-0.722050
	0.608015
	-0.246590
	-0.192795
	0.571937
	-0.718828
	0.602539
	-0.244658
	-0.196983
	0.575480
	-0.723338
	0.606082
	-0.248845
	-0.195050
	0.570648
	-0.720439
	0.600928
	-0.244336
	-0.197305
	0.574514
	-0.725593
	0.605116
	-0.249490
	-0.193117
	0.572581
	-0.719473
	0.601250
	-0.245302
	-0.198916
	0.573869
	-0.724949
	0.604472
	-0.249167
	-0.193439
	0.571937
	-0.719150
	0.601895
	-0.243047
	-0.195694
	0.577413
	-0.722694
	0.607371
	-0.247235
	-0.191829
	0.571614
	-0.719150
	0.601572
	-0.242725
	-0.195694
	0.576768
	-0.723016
	0.605760
	-0.247879
	-0.193762
	0.570970
	-0.720761
	0.600606
	-0.243691
	-0.197627
	0.574836
	-0.725593
	0.604794
	-0.248845
	-0.193439
	0.570970
	-0.720439
	0.600606
	-0.245302
	-0.198593
	0.573869
	-0.723016
	0.605760
	-0.246913
	-0.192473
	0.572259
	-0.721405
	0.602861
	-0.244980
	-0.196016
	0.574836
	-0.721083
	0.605116
	-0.245624
	-0.195050
	0.573547
	-0.720439
	0.604472
	-0.243369
	-0.194084
	0.576124
	-0.719473
	0.605760
	-0.244336
	-0.193117
	0.575158
	-0.719795
	0.605438
	-0.244336
	-0.194084
	0.574514
	-0.719795
	0.605116
	-0.243691
	-0.195050
	0.576124
	-0.721083
	0.603827
	-0.247235
	-0.194406
	0.572903
	-0.720117
	0.603827
	-0.243047
	-0.196339
	0.573869
	-0.723016
	0.604472
	-0.246913
	-0.193439
	0.573547
	-0.718828
	0.602217
	-0.244980
	-0.196983
	0.576446
	-0.722694
	0.606082
	-0.245624
	-0.192795
	0.572581
	-0.719795
	0.602539
	-0.242725
	-0.196016
	0.577735
	-0.722694
	0.604149
	-0.247557
	-0.194084
	0.572259
	-0.720117
	0.600928
	-0.244013
	-0.198916
	0.575158
	-0.725271
	0.604149
	-0.248523
	-0.194728
	0.572259
	-0.719795
	0.602861
	-0.241758
	-0.197305
	0.576768
	-0.722372
	0.607049
	-0.246590
	-0.191829
	0.573547
	-0.718184
	0.602217
	-0.242725
	-0.196983
	0.576124
	-0.721405
	0.606404
	-0.246590
	-0.194084
	0.571292
	-0.719795
	0.600928
	-0.243047
	-0.198916
	0.575802
	-0.723982
	0.603827
	-0.248845
	-0.195372
	0.570648
	-0.720761
	0.600606
	-0.243691
	-0.198271
	0.575158
	-0.723982
	0.605760
	-0.246913
	-0.193762
	0.572581
	-0.718828
	0.602861
	-0.243691
	-0.197627
	0.576446
	-0.722694
	0.605116
	-0.246268
	-0.193762
	0.573547
	-0.719473
	0.602861
	-0.243369
	-0.196339
	0.576124
	-0.720117
	0.606082
	-0.245302
	-0.194406
	0.574514
	-0.720117
	0.603827
	-0.244658
	-0.196339
	0.575158
	-0.723016
	0.601895
	-0.246590
	-0.197627
	0.574514
	-0.722372
	0.604149
	-0.245946
	-0.195372
	0.571937
	-0.719150
	0.601572
	-0.243047
	-0.197305
	0.576768
	-0.721727
	0.607371
	-0.245624
	-0.191829
	0.573547
	-0.717540
	0.603183
	-0.242081
	-0.196661
	0.576768
	-0.723660
	0.605116
	-0.247879
	-0.194406
	0.571292
	-0.719795
	0.599962
	-0.244980
	-0.199560
	0.574836
	-0.724304
	0.606082
	-0.246590
	-0.193439
	0.572581
	-0.719150
	0.601250
	-0.242725
	-0.196983
	0.576768
	-0.721083
	0.606726
	-0.246268
	-0.194084
	0.573869
	-0.719473
	0.603827
	-0.242403
	-0.195050
	0.576446
	-0.719795
	0.605438
	-0.243047
	-0.194406
	0.577413
	-0.720439
	0.605116
	-0.244336
	-0.195050
	0.572259
	-0.720117
	0.602539
	-0.243047
	-0.196983
	0.576768
	-0.723016
	0.604794
	-0.246913
	-0.193762
	0.572903
	-0.718828
	0.602861
	-0.242081
	-0.198271
	0.575480
	-0.723982
	0.605116
	-0.245946
	-0.193439
	0.574836
	-0.717862
	0.603827
	-0.242081
	-0.196983
	0.578379
	-0.720439
	0.607693
	-0.244980
	-0.192473
	0.573869
	-0.719473
	0.602217
	-0.242403
	-0.197627
	0.576446
	-0.723338
	0.604472
	-0.247879
	-0.195694
	0.571614
	-0.720761
	0.600284
	-0.243047
	-0.198271
	0.576446
	-0.723982
	0.605438
	-0.246590
	-0.195050
	0.571937
	-0.719795
	0.601895
	-0.241758
	-0.197949
	0.576446
	-0.723338
	0.605438
	-0.245302
	-0.193117
	0.574191
	-0.719150
	0.601895
	-0.242725
	-0.198271
	0.577735
	-0.723338
	0.604794
	-0.246913
	-0.195372
	0.571292
	-0.720761
	0.600284
	-0.243047
	-0.198916
	0.577091
	-0.723338
	0.605438
	-0.246913
	-0.195050
	0.571292
	-0.720117
	0.600928
	-0.242081
	-0.198271
	0.576446
	-0.723016
	0.605438
	-0.246590
	-0.193439
	0.573547
	-0.718184
	0.601572
	-0.241436
	-0.197949
	0.576768
	-0.722050
	0.606082
	-0.245624
	-0.193117
	0.573869
	-0.719150
	0.601895
	-0.241436
	-0.197305
	0.578057
	-0.722694
	0.605760
	-0.246590
	-0.194728
	0.572581
	-0.719150
	0.602217
	-0.241758
	-0.197305
	0.576768
	-0.723660
	0.603505
	-0.248845
	-0.195050
	0.571614
	-0.720439
	0.600606
	-0.242081
	-0.197627
	0.578057
	-0.722050
	0.606404
	-0.245302
	-0.194084
	0.573869
	-0.718184
	0.601895
	-0.242081
	-0.198271
	0.577735
	-0.723660
	0.605438
	-0.246590
	-0.194406
	0.572581
	-0.719795
	0.599640
	-0.243691
	-0.199238
	0.576124
	-0.723982
	0.603827
	-0.249167
	-0.197627
	0.570970
	-0.720117
	0.600284
	-0.243691
	-0.198271
	0.576446
	-0.724949
	0.604472
	-0.246913
	-0.194406
	0.573225
	-0.719150
	0.600928
	-0.241436
	-0.198593
	0.577735
	-0.722694
	0.607049
	-0.244980
	-0.192473
	0.574514
	-0.719150
	0.601895
	-0.242403
	-0.198271
	0.576124
	-0.721405
	0.606404
	-0.244336
	-0.195050
	0.572259
	-0.720439
	0.601895
	-0.242725
	-0.197627
	0.577413
	-0.721727
	0.604149
	-0.246590
	-0.196339
	0.573869
	-0.719795
	0.603183
	-0.242725
	-0.197627
	0.574514
	-0.721727
	0.602539
	-0.245946
	-0.196983
	0.574191
	-0.721727
	0.603505
	-0.244013
	-0.195372
	0.576446
	-0.719150
	0.604472
	-0.242081
	-0.194728
	0.578701
	-0.720439
	0.605116
	-0.243691
	-0.193439
	0.575480
	-0.719150
	0.604149
	-0.241758
	-0.197949
	0.576124
	-0.723338
	0.603183
	-0.244980
	-0.195694
	0.573869
	-0.721405
	0.600606
	-0.243369
	-0.199560
	0.576768
	-0.722694
	0.605760
	-0.244336
	-0.195050
	0.573547
	-0.719473
	0.603183
	-0.240470
	-0.197305
	0.579023
	-0.721727
	0.605438
	-0.245946
	-0.193762
	0.574191
	-0.718506
	0.600928
	-0.241436
	-0.199238
	0.576768
	-0.724304
	0.604794
	-0.245946
	-0.195372
	0.573547
	-0.719150
	0.600284
	-0.242081
	-0.199238
	0.577091
	-0.724304
	0.604472
	-0.245624
	-0.194084
	0.571937
	-0.720117
	0.600928
	-0.242081
	-0.197949
	0.578701
	-0.721405
	0.607049
	-0.244658
	-0.194728
	0.574191
	-0.718184
	0.602539
	-0.239826
	-0.197627
	0.578057
	-0.722694
	0.605116
	-0.246590
	-0.195050
	0.573869
	-0.718828
	0.601250
	-0.242081
	-0.199560
	0.577413
	-0.723660
	0.606082
	-0.245302
	-0.195050
	0.573547
	-0.719795
	0.599962
	-0.242403
	-0.200204
	0.576446
	-0.724627
	0.604794
	-0.245624
	-0.196339
	0.572581
	-0.720439
	0.599962
	-0.242403
	-0.198271
	0.579023
	-0.721405
	0.605116
	-0.245946
	-0.195050
	0.572259
	-0.718506
	0.601250
	-0.241114
	-0.198593
	0.577735
	-0.723338
	0.605760
	-0.244658
	-0.193762
	0.574191
	-0.718184
	0.600606
	-0.242081
	-0.200204
	0.576768
	-0.723338
	0.604472
	-0.245302
	-0.195372
	0.573225
	-0.720117
	0.600606
	-0.241436
	-0.197949
	0.577735
	-0.722050
	0.604794
	-0.244658
	-0.194406
	0.575158
	-0.718506
	0.603827
	-0.240470
	-0.196339
	0.578379
	-0.721083
	0.605438
	-0.243369
	-0.194728
	0.575802
	-0.718828
	0.602539
	-0.241758
	-0.197305
	0.577413
	-0.721727
	0.605116
	-0.243369
	-0.195372
	0.574836
	-0.719150
	0.600928
	-0.243369
	-0.198593
	0.576768
	-0.721727
	0.604794
	-0.242403
	-0.195694
	0.575158
	-0.718828
	0.604472
	-0.241114
	-0.196016
	0.578701
	-0.719150
	0.605438
	-0.241758
	-0.195694
	0.576446
	-0.719150
	0.604794
	-0.240470
	-0.195694
	0.576768
	-0.720439
	0.604472
	-0.242725
	-0.195694
	0.575802
	-0.719473
	0.603505
	-0.242081
	-0.197949
	0.576124
	-0.721727
	0.604149
	-0.244013
	-0.196983
	0.575158
	-0.720761
	0.600928
	-0.242725
	-0.198593
	0.576768
	-0.722050
	0.603505
	-0.244336
	-0.197627
	0.574836
	-0.719795
	0.601895
	-0.240792
	-0.196661
	0.577413
	-0.720117
	0.604794
	-0.242081
	-0.193762
	0.578057
	-0.718184
	0.604794
	-0.240470
	-0.196016
	0.576124
	-0.721405
	0.603505
	-0.241758
	-0.197627
	0.576446
	-0.722694
	0.600606
	-0.244336
	-0.198593
	0.573869
	-0.721083
	0.602217
	-0.242725
	-0.196661
	0.575802
	-0.722694
	0.602217
	-0.243691
	-0.197627
	0.575158
	-0.721405
	0.603505
	-0.242403
	-0.196983
	0.576124
	-0.720117
	0.603183
	-0.240148
	-0.196339
	0.577413
	-0.721405
	0.603183
	-0.243047
	-0.196016
	0.576124
	-0.719473
	0.602861
	-0.242081
	-0.197949
	0.576768
	-0.721405
	0.603827
	-0.242725
	-0.196983
	0.575480
	-0.720117
	0.601895
	-0.240792
	-0.198271
	0.577735
	-0.721405
	0.604472
	-0.243691
	-0.196339
	0.573547
	-0.719795
	0.600284
	-0.242403
	-0.200526
	0.576768
	-0.723660
	0.603505
	-0.245302
	-0.196661
	0.573225
	-0.719473
	0.600928
	-0.240792
	-0.201170
	0.577735
	-0.723982
	0.604472
	-0.244336
	-0.194084
	0.575480
	-0.717540
	0.601572
	-0.241114
	-0.199560
	0.578379
	-0.721727
	0.605116
	-0.244658
	-0.196339
	0.572581
	-0.721083
	0.599317
	-0.242081
	-0.199560
	0.577735
	-0.723982
	0.604149
	-0.244658
	-0.196339
	0.574514
	-0.718184
	0.600928
	-0.241114
	-0.199238
	0.577735
	-0.723338
	0.604472
	-0.243369
	-0.195050
	0.575158
	-0.718184
	0.602217
	-0.240792
	-0.197949
	0.577735
	-0.721405
	0.604472
	-0.242403
	-0.195372
	0.577091
	-0.719473
	0.601572
	-0.242081
	-0.199238
	0.577091
	-0.721405
	0.603827
	-0.242725
	-0.196661
	0.575480
	-0.720439
	0.601572
	-0.241436
	-0.198271
	0.577091
	-0.721083
	0.603183
	-0.243369
	-0.197627
	0.575802
	-0.720761
	0.601895
	-0.242725
	-0.197627
	0.575480
	-0.721405
	0.603505
	-0.242081
	-0.197627
	0.577413
	-0.720439
	0.604794
	-0.242725
	-0.196661
	0.576768
	-0.719150
	0.602861
	-0.238859
	-0.196983
	0.578379
	-0.721727
	0.604794
	-0.243047
	-0.195050
	0.576124
	-0.718184
	0.602217
	-0.240470
	-0.199238
	0.578057
	-0.724304
	0.605438
	-0.244658
	-0.195694
	0.574191
	-0.720117
	0.599962
	-0.241114
	-0.199882
	0.578379
	-0.723338
	0.604149
	-0.244980
	-0.196661
	0.572581
	-0.719795
	0.599962
	-0.240792
	-0.200848
	0.577735
	-0.724627
	0.602217
	-0.246268
	-0.196339
	0.574191
	-0.718828
	0.601895
	-0.238859
	-0.199238
	0.579346
	-0.722694
	0.605116
	-0.243369
	-0.193762
	0.576124
	-0.717540
	0.600606
	-0.239504
	-0.199560
	0.578701
	-0.722694
	0.605760
	-0.242403
	-0.195050
	0.575158
	-0.717862
	0.600606
	-0.239181
	-0.199238
	0.579346
	-0.723660
	0.605116
	-0.244980
	-0.197305
	0.573547
	-0.719150
	0.600284
	-0.239504
	-0.200204
	0.578379
	-0.723660
	0.604149
	-0.244013
	-0.196016
	0.574191
	-0.719150
	0.600284
	-0.240470
	-0.200848
	0.577735
	-0.723982
	0.603827
	-0.244336
	-0.196983
	0.573225
	-0.719795
	0.598673
	-0.241436
	-0.201493
	0.577091
	-0.724627
	0.603183
	-0.244980
	-0.197627
	0.573225
	-0.720761
	0.598673
	-0.239826
	-0.200526
	0.578057
	-0.722694
	0.603505
	-0.244336
	-0.196661
	0.573869
	-0.718184
	0.601250
	-0.238859
	-0.199238
	0.577413
	-0.724627
	0.603827
	-0.244013
	-0.195050
	0.574514
	-0.718828
	0.600606
	-0.239504
	-0.199560
	0.580312
	-0.721405
	0.605438
	-0.244013
	-0.195694
	0.573869
	-0.719150
	0.600928
	-0.239504
	-0.199238
	0.579346
	-0.723016
	0.604794
	-0.244013
	-0.195372
	0.574836
	-0.719150
	0.600284
	-0.239504
	-0.198593
	0.580312
	-0.723660
	0.604149
	-0.244658
	-0.196983
	0.573869
	-0.718506
	0.599962
	-0.238859
	-0.201493
	0.577091
	-0.723982
	0.603827
	-0.243047
	-0.196016
	0.574836
	-0.718828
	0.600284
	-0.240470
	-0.200204
	0.577735
	-0.723660
	0.604149
	-0.244336
	-0.197627
	0.573869
	-0.720117
	0.599962
	-0.240470
	-0.198916
	0.578379
	-0.722372
	0.605116
	-0.242403
	-0.195372
	0.577091
	-0.717862
	0.602539
	-0.239181
	-0.198593
	0.579346
	-0.720761
	0.604149
	-0.241436
	-0.196016
	0.577735
	-0.718828
	0.603827
	-0.239181
	-0.197305
	0.578701
	-0.720439
	0.604794
	-0.241436
	-0.196983
	0.577091
	-0.720439
	0.601572
	-0.241758
	-0.198271
	0.578057
	-0.719795
	0.602217
	-0.240470
	-0.200204
	0.577091
	-0.720439
	0.604149
	-0.241436
	-0.196339
	0.576446
	-0.719150
	0.600606
	-0.241114
	-0.200848
	0.577413
	-0.723660
	0.604149
	-0.243691
	-0.197949
	0.574836
	-0.719795
	0.600284
	-0.239181
	-0.200526
	0.579668
	-0.722694
	0.604149
	-0.243369
	-0.197305
	0.575480
	-0.717540
	0.600606
	-0.239181
	-0.200204
	0.579346
	-0.723338
	0.605116
	-0.241758
	-0.194728
	0.577091
	-0.717540
	0.602217
	-0.238859
	-0.200526
	0.579990
	-0.722372
	0.606082
	-0.241436
	-0.196016
	0.575158
	-0.719473
	0.599962
	-0.238537
	-0.201170
	0.578379
	-0.723016
	0.604472
	-0.243691
	-0.197627
	0.573547
	-0.718828
	0.600606
	-0.239181
	-0.200204
	0.579346
	-0.723016
	0.603827
	-0.243047
	-0.196983
	0.575480
	-0.719795
	0.601250
	-0.239826
	-0.200526
	0.578379
	-0.721727
	0.603827
	-0.240792
	-0.196339
	0.578057
	-0.719150
	0.601250
	-0.239826
	-0.199560
	0.579023
	-0.719150
	0.605116
	-0.240148
	-0.195694
	0.577091
	-0.718828
	0.602539
	-0.237571
	-0.198271
	0.579990
	-0.720439
	0.604472
	-0.243047
	-0.198271
	0.575158
	-0.719795
	0.599640
	-0.239826
	-0.201493
	0.577735
	-0.722694
	0.603505
	-0.243369
	-0.197949
	0.574836
	-0.719150
	0.599962
	-0.240792
	-0.200526
	0.577735
	-0.722694
	0.602861
	-0.242403
	-0.196339
	0.575158
	-0.719795
	0.599640
	-0.240148
	-0.201170
	0.578057
	-0.723338
	0.601895
	-0.244013
	-0.198593
	0.574836
	-0.719473
	0.599962
	-0.238537
	-0.201493
	0.579023
	-0.722694
	0.603505
	-0.243369
	-0.196016
	0.575802
	-0.718506
	0.600928
	-0.238859
	-0.201493
	0.579346
	-0.723338
	0.604794
	-0.242081
	-0.196983
	0.574514
	-0.719473
	0.599640
	-0.239181
	-0.201170
	0.578701
	-0.722694
	0.604794
	-0.242403
	-0.197305
	0.575158
	-0.719473
	0.598673
	-0.240470
	-0.202459
	0.578379
	-0.723338
	0.603827
	-0.243691
	-0.196983
	0.574836
	-0.718506
	0.599962
	-0.238859
	-0.201493
	0.579346
	-0.723660
	0.602861
	-0.243691
	-0.198271
	0.573225
	-0.719795
	0.598029
	-0.240792
	-0.203103
	0.578379
	-0.724304
	0.602861
	-0.244013
	-0.198271
	0.573547
	-0.721083
	0.598673
	-0.240470
	-0.202781
	0.579668
	-0.723660
	0.603505
	-0.244658
	-0.198593
	0.574836
	-0.719473
	0.598351
	-0.239181
	-0.202137
	0.578057
	-0.724304
	0.602217
	-0.244336
	-0.198916
	0.575158
	-0.719795
	0.599962
	-0.239504
	-0.201493
	0.578057
	-0.722050
	0.602861
	-0.241114
	-0.196983
	0.578701
	-0.718828
	0.601572
	-0.239181
	-0.199238
	0.579668
	-0.721083
	0.603505
	-0.240470
	-0.197949
	0.576124
	-0.719795
	0.601250
	-0.238859
	-0.198271
	0.579346
	-0.721405
	0.603183
	-0.240792
	-0.197627
	0.577735
	-0.720117
	0.602217
	-0.240148
	-0.199882
	0.577735
	-0.721727
	0.600928
	-0.240148
	-0.200204
	0.576768
	-0.722050
	0.601895
	-0.242403
	-0.199560
	0.576768
	-0.719473
	0.600606
	-0.239181
	-0.200204
	0.578379
	-0.722694
	0.602861
	-0.242725
	-0.198593
	0.576124
	-0.719473
	0.600284
	-0.238537
	-0.202137
	0.578701
	-0.723982
	0.603827
	-0.242403
	-0.196661
	0.575802
	-0.718184
	0.598351
	-0.239181
	-0.203103
	0.579346
	-0.723338
	0.603505
	-0.243047
	-0.198271
	0.574514
	-0.719150
	0.598995
	-0.237893
	-0.201170
	0.580956
	-0.722694
	0.602861
	-0.243369
	-0.197949
	0.575480
	-0.718828
	0.598995
	-0.238215
	-0.201815
	0.579023
	-0.723660
	0.604149
	-0.244013
	-0.197305
	0.575158
	-0.719795
	0.598673
	-0.239826
	-0.203747
	0.577091
	-0.724949
	0.601250
	-0.244336
	-0.199560
	0.574514
	-0.720439
	0.598029
	-0.239504
	-0.202459
	0.578057
	-0.722694
	0.602539
	-0.244013
	-0.199238
	0.574191
	-0.720117
	0.599640
	-0.238215
	-0.200848
	0.579668
	-0.722694
	0.603183
	-0.242081
	-0.197949
	0.576124
	-0.719150
	0.599962
	-0.237893
	-0.201170
	0.580956
	-0.721405
	0.604794
	-0.238859
	-0.196016
	0.576446
	-0.717540
	0.599962
	-0.237571
	-0.201493
	0.580312
	-0.723338
	0.604149
	-0.242403
	-0.198271
	0.574514
	-0.720439
	0.598351
	-0.239504
	-0.203747
	0.579346
	-0.724304
	0.601895
	-0.245302
	-0.200848
	0.572259
	-0.721727
	0.597063
	-0.239826
	-0.203103
	0.577413
	-0.724949
	0.600928
	-0.243691
	-0.200204
	0.575480
	-0.719795
	0.599962
	-0.239181
	-0.201815
	0.579668
	-0.722050
	0.603183
	-0.241436
	-0.197949
	0.576446
	-0.718828
	0.600606
	-0.238537
	-0.199238
	0.580956
	-0.719795
	0.603505
	-0.240148
	-0.197949
	0.578701
	-0.719795
	0.600606
	-0.238537
	-0.200204
	0.579346
	-0.721083
	0.601895
	-0.238859
	-0.199560
	0.579990
	-0.720117
	0.603827
	-0.238537
	-0.198916
	0.578057
	-0.721405
	0.599640
	-0.240148
	-0.202137
	0.577413
	-0.722694
	0.601250
	-0.241436
	-0.199238
	0.575480
	-0.719795
	0.599640
	-0.238215
	-0.200848
	0.579346
	-0.722372
	0.602539
	-0.240470
	-0.198271
	0.576124
	-0.719473
	0.598673
	-0.237893
	-0.201815
	0.581600
	-0.721405
	0.604472
	-0.240470
	-0.196983
	0.576446
	-0.717862
	0.600284
	-0.237249
	-0.202781
	0.581278
	-0.722694
	0.603505
	-0.242403
	-0.198271
	0.574514
	-0.718184
	0.598673
	-0.237249
	-0.201170
	0.581278
	-0.722050
	0.603183
	-0.242081
	-0.198916
	0.576124
	-0.718506
	0.600606
	-0.237893
	-0.203425
	0.578701
	-0.723660
	0.602217
	-0.242081
	-0.199560
	0.574836
	-0.719473
	0.597707
	-0.239504
	-0.203747
	0.579023
	-0.723016
	0.602539
	-0.243691
	-0.199560
	0.573869
	-0.719795
	0.597385
	-0.237893
	-0.202781
	0.579668
	-0.722694
	0.603183
	-0.241758
	-0.198271
	0.577091
	-0.717862
	0.598673
	-0.236282
	-0.201493
	0.580312
	-0.722694
	0.603183
	-0.242081
	-0.199238
	0.575480
	-0.718506
	0.599317
	-0.237571
	-0.202137
	0.580634
	-0.722050
	0.603505
	-0.241758
	-0.197305
	0.576124
	-0.719150
	0.598673
	-0.237893
	-0.201815
	0.579990
	-0.723338
	0.602539
	-0.242725
	-0.200204
	0.574836
	-0.721083
	0.598995
	-0.239504
	-0.202137
	0.578701
	-0.722694
	0.601250
	-0.240470
	-0.200526
	0.575802
	-0.721083
	0.599962
	-0.239181
	-0.200204
	0.578701
	-0.719473
	0.602861
	-0.237571
	-0.196983
	0.580634
	-0.717862
	0.603183
	-0.237249
	-0.199560
	0.579990
	-0.718184
	0.603505
	-0.236604
	-0.199882
	0.578701
	-0.721083
	0.601572
	-0.240148
	-0.198916
	0.579346
	-0.719150
	0.600928
	-0.239504
	-0.199882
	0.579023
	-0.721405
	0.602539
	-0.241114
	-0.199882
	0.577091
	-0.720761
	0.600606
	-0.238215
	-0.200848
	0.579990
	-0.721727
	0.601895
	-0.239826
	-0.200526
	0.576768
	-0.720117
	0.600284
	-0.237893
	-0.201493
	0.579668
	-0.723338
	0.601895
	-0.241114
	-0.199238
	0.576768
	-0.719473
	0.600284
	-0.237249
	-0.201493
	0.581923
	-0.721405
	0.603827
	-0.239181
	-0.197627
	0.578701
	-0.717540
	0.598673
	-0.236927
	-0.203425
	0.579668
	-0.722694
	0.602539
	-0.241436
	-0.198916
	0.575480
	-0.718828
	0.599640
	-0.235316
	-0.202137
	0.581278
	-0.723660
	0.601572
	-0.243047
	-0.200204
	0.575480
	-0.720117
	0.598351
	-0.237571
	-0.202781
	0.579023
	-0.724627
	0.601895
	-0.242725
	-0.199238
	0.574836
	-0.719795
	0.597707
	-0.239181
	-0.205680
	0.579668
	-0.725271
	0.601250
	-0.241114
	-0.199238
	0.575480
	-0.718184
	0.598029
	-0.237893
	-0.202137
	0.581278
	-0.722050
	0.604472
	-0.240792
	-0.199238
	0.576446
	-0.718506
	0.601250
	-0.235316
	-0.201815
	0.580634
	-0.723660
	0.601250
	-0.242081
	-0.199238
	0.575802
	-0.718828
	0.598673
	-0.237249
	-0.204070
	0.578379
	-0.723660
	0.600606
	-0.242725
	-0.200526
	0.575802
	-0.720439
	0.598029
	-0.237571
	-0.203103
	0.580634
	-0.722694
	0.602861
	-0.240792
	-0.199882
	0.576446
	-0.720439
	0.597707
	-0.236927
	-0.204070
	0.580956
	-0.723338
	0.602217
	-0.242081
	-0.199560
	0.575802
	-0.719150
	0.598673
	-0.236604
	-0.201815
	0.580634
	-0.723660
	0.602539
	-0.241436
	-0.199238
	0.576768
	-0.718506
	0.598673
	-0.237571
	-0.203747
	0.579668
	-0.723660
	0.602539
	-0.241114
	-0.199560
	0.576124
	-0.720439
	0.597707
	-0.237571
	-0.203425
	0.580312
	-0.723982
	0.603183
	-0.242081
	-0.200204
	0.575480
	-0.720439
	0.598673
	-0.236927
	-0.204070
	0.579990
	-0.722372
	0.603183
	-0.239504
	-0.198271
	0.576446
	-0.717540
	0.599640
	-0.235316
	-0.203747
	0.580312
	-0.723016
	0.603505
	-0.240148
	-0.197305
	0.578379
	-0.717540
	0.599962
	-0.235638
	-0.202781
	0.582889
	-0.722050
	0.604794
	-0.239826
	-0.198593
	0.577413
	-0.718828
	0.599962
	-0.235960
	-0.201815
	0.581600
	-0.721727
	0.602861
	-0.240470
	-0.199560
	0.577091
	-0.718828
	0.598029
	-0.237249
	-0.203747
	0.579346
	-0.723338
	0.601250
	-0.241758
	-0.200526
	0.576768
	-0.719473
	0.599962
	-0.237571
	-0.203425
	0.580312
	-0.723338
	0.602861
	-0.239826
	-0.198916
	0.577735
	-0.719150
	0.598673
	-0.237571
	-0.204392
	0.580312
	-0.723016
	0.602539
	-0.241436
	-0.200526
	0.575480
	-0.719795
	0.598351
	-0.234994
	-0.202459
	0.582889
	-0.723016
	0.603827
	-0.240792
	-0.198593
	0.577413
	-0.718184
	0.599317
	-0.235316
	-0.203103
	0.581923
	-0.722694
	0.603827
	-0.240148
	-0.198916
	0.577413
	-0.718506
	0.598351
	-0.237893
	-0.204070
	0.580312
	-0.724304
	0.600606
	-0.242081
	-0.201170
	0.574191
	-0.720439
	0.597063
	-0.237249
	-0.204714
	0.579990
	-0.723660
	0.602217
	-0.242403
	-0.201170
	0.575480
	-0.719473
	0.598029
	-0.235960
	-0.204070
	0.580312
	-0.724949
	0.600928
	-0.242081
	-0.200204
	0.575802
	-0.719150
	0.597385
	-0.237571
	-0.205036
	0.579990
	-0.723982
	0.602539
	-0.242081
	-0.199882
	0.575158
	-0.719150
	0.597063
	-0.237249
	-0.203425
	0.581278
	-0.722694
	0.603183
	-0.240148
	-0.199560
	0.576768
	-0.718184
	0.598995
	-0.235638
	-0.202781
	0.581278
	-0.722694
	0.601572
	-0.240470
	-0.199238
	0.577413
	-0.718506
	0.599640
	-0.235316
	-0.201815
	0.579990
	-0.721727
	0.602861
	-0.238859
	-0.198916
	0.577735
	-0.717540
	0.598995
	-0.236604
	-0.202137
	0.581923
	-0.721405
	0.603827
	-0.238537
	-0.198916
	0.579023
	-0.718828
	0.599640
	-0.235960
	-0.202137
	0.580634
	-0.722694
	0.600606
	-0.239181
	-0.201493
	0.579023
	-0.720117
	0.600606
	-0.237249
	-0.201815
	0.579668
	-0.722050
	0.600606
	-0.238537
	-0.201493
	0.578701
	-0.720117
	0.599640
	-0.236927
	-0.203747
	0.579668
	-0.722050
	0.600606
	-0.239181
	-0.202137
	0.577413
	-0.720439
	0.598673
	-0.238537
	-0.204070
	0.579346
	-0.723016
	0.602539
	-0.238537
	-0.200848
	0.577735
	-0.719473
	0.599962
	-0.235316
	-0.201815
	0.581923
	-0.720439
	0.602539
	-0.238215
	-0.199560
	0.578379
	-0.717218
	0.600928
	-0.234672
	-0.202137
	0.579990
	-0.721727
	0.600928
	-0.238859
	-0.199882
	0.578379
	-0.719795
	0.598673
	-0.237249
	-0.203747
	0.580634
	-0.722694
	0.601572
	-0.239504
	-0.200204
	0.578379
	-0.720439
	0.598351
	-0.237571
	-0.204070
	0.579023
	-0.722694
	0.600606
	-0.241436
	-0.202781
	0.576124
	-0.721727
	0.597707
	-0.236927
	-0.203425
	0.579346
	-0.722372
	0.599962
	-0.239181
	-0.201493
	0.579990
	-0.720117
	0.599317
	-0.237893
	-0.203103
	0.579023
	-0.721405
	0.599317
	-0.236604
	-0.202459
	0.580956
	-0.721405
	0.601895
	-0.237893
	-0.198271
	0.579346
	-0.718184
	0.599962
	-0.235638
	-0.203103
	0.580634
	-0.722372
	0.601250
	-0.239826
	-0.202137
	0.576446
	-0.720439
	0.596096
	-0.237571
	-0.205358
	0.579668
	-0.723338
	0.600928
	-0.240792
	-0.201493
	0.575480
	-0.721083
	0.596418
	-0.237249
	-0.205358
	0.580312
	-0.723016
	0.601895
	-0.239826
	-0.201493
	0.576768
	-0.720117
	0.598673
	-0.235960
	-0.204070
	0.580312
	-0.721405
	0.601572
	-0.238215
	-0.200204
	0.579346
	-0.719473
	0.600606
	-0.235316
	-0.203425
	0.581923
	-0.719795
	0.602539
	-0.236927
	-0.201170
	0.579990
	-0.719795
	0.599962
	-0.236604
	-0.202137
	0.579990
	-0.721405
	0.599962
	-0.238859
	-0.203747
	0.578379
	-0.721405
	0.599317
	-0.238215
	-0.202459
	0.579668
	-0.720761
	0.599317
	-0.238859
	-0.203425
	0.578057
	-0.721405
	0.599640
	-0.237571
	-0.202137
	0.578701
	-0.721405
	0.598995
	-0.235960
	-0.201815
	0.579990
	-0.721405
	0.600284
	-0.238537
	-0.202137
	0.579668
	-0.721083
	0.599640
	-0.237571
	-0.201815
	0.579990
	-0.720439
	0.600284
	-0.237249
	-0.202137
	0.579990
	-0.719150
	0.601250
	-0.235960
	-0.203103
	0.581278
	-0.720117
	0.601250
	-0.236604
	-0.201170
	0.580956
	-0.720761
	0.600928
	-0.238537
	-0.203425
	0.578701
	-0.721727
	0.599317
	-0.238215
	-0.203425
	0.579668
	-0.721083
	0.600284
	-0.237249
	-0.201493
	0.579990
	-0.721405
	0.598673
	-0.239181
	-0.203747
	0.579668
	-0.719795
	0.600928
	-0.237893
	-0.201170
	0.579023
	-0.719473
	0.599640
	-0.234672
	-0.202137
	0.581600
	-0.722050
	0.601250
	-0.239504
	-0.202137
	0.578379
	-0.719795
	0.597707
	-0.235316
	-0.204392
	0.581923
	-0.722694
	0.602539
	-0.238859
	-0.200204
	0.578057
	-0.718506
	0.598029
	-0.236604
	-0.205680
	0.581278
	-0.723016
	0.601250
	-0.240148
	-0.202137
	0.576768
	-0.720439
	0.595774
	-0.237249
	-0.206324
	0.580634
	-0.723660
	0.601572
	-0.239504
	-0.202137
	0.576768
	-0.719473
	0.597707
	-0.234350
	-0.205358
	0.581923
	-0.723982
	0.601572
	-0.238859
	-0.199238
	0.578379
	-0.718184
	0.598351
	-0.234994
	-0.205036
	0.581600
	-0.723338
	0.600606
	-0.239504
	-0.201815
	0.575802
	-0.720439
	0.595452
	-0.236282
	-0.207291
	0.580634
	-0.723660
	0.600928
	-0.238859
	-0.200848
	0.576124
	-0.720439
	0.596418
	-0.235638
	-0.205680
	0.581278
	-0.722694
	0.601895
	-0.240148
	-0.201815
	0.576768
	-0.719473
	0.598029
	-0.235316
	-0.203747
	0.581600
	-0.723338
	0.601895
	-0.239181
	-0.201815
	0.578701
	-0.718828
	0.597063
	-0.235638
	-0.204714
	0.581278
	-0.722050
	0.601250
	-0.236604
	-0.203103
	0.578701
	-0.721083
	0.598351
	-0.237249
	-0.203103
	0.579668
	-0.723016
	0.599317
	-0.238215
	-0.205036
	0.578701
	-0.722050
	0.598029
	-0.237571
	-0.204070
	0.579990
	-0.720761
	0.598995
	-0.236282
	-0.202459
	0.581600
	-0.719473
	0.600284
	-0.237249
	-0.201493
	0.579990
	-0.719795
	0.599317
	-0.235316
	-0.203103
	0.582889
	-0.720439
	0.601572
	-0.237571
	-0.201815
	0.579346
	-0.719150
	0.598029
	-0.235960
	-0.205036
	0.580312
	-0.723660
	0.599317
	-0.239826
	-0.202137
	0.577413
	-0.720117
	0.596740
	-0.236604
	-0.205680
	0.580956
	-0.722694
	0.599317
	-0.238537
	-0.202459
	0.577091
	-0.720117
	0.597707
	-0.236282
	-0.206002
	0.579990
	-0.723016
	0.600284
	-0.238215
	-0.203103
	0.578701
	-0.720761
	0.598351
	-0.234994
	-0.204392
	0.582245
	-0.721727
	0.600606
	-0.238215
	-0.201815
	0.579668
	-0.719150
	0.598673
	-0.234672
	-0.204392
	0.580312
	-0.722694
	0.600928
	-0.238215
	-0.201493
	0.578701
	-0.718506
	0.596740
	-0.236282
	-0.206647
	0.580312
	-0.723982
	0.599640
	-0.240792
	-0.204392
	0.576446
	-0.721727
	0.595774
	-0.236927
	-0.206324
	0.580634
	-0.723338
	0.599317
	-0.239181
	-0.203747
	0.578057
	-0.720439
	0.597707
	-0.236604
	-0.204070
	0.580634
	-0.723338
	0.600606
	-0.237893
	-0.201493
	0.579346
	-0.718506
	0.599317
	-0.234350
	-0.204714
	0.582889
	-0.722050
	0.600928
	-0.237249
	-0.201170
	0.579346
	-0.720117
	0.597385
	-0.235638
	-0.205036
	0.581600
	-0.722050
	0.601250
	-0.238859
	-0.203103
	0.577091
	-0.721083
	0.597063
	-0.235960
	-0.207291
	0.580634
	-0.725271
	0.597707
	-0.240148
	-0.204714
	0.577091
	-0.721083
	0.596096
	-0.235316
	-0.205680
	0.580634
	-0.723338
	0.600928
	-0.237893
	-0.201493
	0.577735
	-0.719795
	0.596740
	-0.235316
	-0.207291
	0.581278
	-0.723982
	0.601572
	-0.238859
	-0.200204
	0.578379
	-0.719150
	0.596096
	-0.235316
	-0.206647
	0.581600
	-0.723982
	0.599962
	-0.239504
	-0.204714
	0.576124
	-0.721727
	0.595774
	-0.235638
	-0.206969
	0.579990
	-0.725593
	0.598995
	-0.239826
	-0.203103
	0.578057
	-0.719473
	0.596740
	-0.234027
	-0.207291
	0.581278
	-0.723338
	0.600928
	-0.238537
	-0.202137
	0.577735
	-0.718828
	0.596096
	-0.235316
	-0.207291
	0.581278
	-0.723660
	0.600284
	-0.238859
	-0.203103
	0.576446
	-0.720439
	0.595130
	-0.235638
	-0.207613
	0.581600
	-0.723982
	0.599962
	-0.239504
	-0.203103
	0.576768
	-0.720117
	0.596418
	-0.235316
	-0.207613
	0.581278
	-0.725271
	0.599317
	-0.240470
	-0.203103
	0.575158
	-0.721727
	0.594486
	-0.236927
	-0.208579
	0.579990
	-0.724627
	0.599962
	-0.239826
	-0.202459
	0.577735
	-0.720439
	0.595452
	-0.234994
	-0.207291
	0.581600
	-0.723660
	0.600606
	-0.239826
	-0.202459
	0.576768
	-0.719473
	0.596418
	-0.233705
	-0.205358
	0.581278
	-0.721405
	0.600606
	-0.237571
	-0.202459
	0.580312
	-0.718828
	0.598995
	-0.234350
	-0.204392
	0.579023
	-0.721083
	0.599317
	-0.235638
	-0.202781
	0.581278
	-0.720439
	0.599640
	-0.236604
	-0.203425
	0.579990
	-0.720761
	0.599317
	-0.235638
	-0.206002
	0.578701
	-0.724304
	0.597707
	-0.239181
	-0.205036
	0.577091
	-0.722050
	0.596418
	-0.235960
	-0.205680
	0.580634
	-0.723016
	0.598995
	-0.237893
	-0.204070
	0.578701
	-0.720761
	0.597063
	-0.236282
	-0.206969
	0.580956
	-0.722050
	0.600606
	-0.236604
	-0.203103
	0.579023
	-0.719795
	0.596096
	-0.234027
	-0.206969
	0.581923
	-0.723016
	0.599640
	-0.239181
	-0.203747
	0.579023
	-0.719150
	0.597063
	-0.235960
	-0.206647
	0.580634
	-0.723338
	0.600606
	-0.237893
	-0.201815
	0.579023
	-0.719795
	0.596096
	-0.235316
	-0.207291
	0.581923
	-0.724304
	0.598995
	-0.239181
	-0.204392
	0.575802
	-0.720761
	0.594486
	-0.234994
	-0.208579
	0.581600
	-0.724627
	0.599640
	-0.239181
	-0.204070
	0.577091
	-0.721083
	0.595452
	-0.234350
	-0.207935
	0.582245
	-0.723660
	0.600606
	-0.237571
	-0.202781
	0.579346
	-0.719150
	0.597385
	-0.233061
	-0.206324
	0.582567
	-0.723016
	0.599962
	-0.237249
	-0.202459
	0.579023
	-0.719150
	0.596740
	-0.234027
	-0.206647
	0.582889
	-0.722694
	0.601895
	-0.235638
	-0.203425
	0.578701
	-0.719795
	0.597063
	-0.233061
	-0.205680
	0.582889
	-0.722694
	0.599317
	-0.238537
	-0.204070
	0.577735
	-0.720761
	0.597385
	-0.234672
	-0.206647
	0.580312
	-0.723982
	0.598029
	-0.237571
	-0.204714
	0.579023
	-0.720439
	0.596096
	-0.235638
	-0.207291
	0.579346
	-0.722372
	0.599317
	-0.235316
	-0.202781
	0.580956
	-0.719795
	0.598673
	-0.234027
	-0.204070
	0.581923
	-0.721083
	0.599962
	-0.234994
	-0.205036
	0.580312
	-0.721405
	0.598995
	-0.234672
	-0.203425
	0.582889
	-0.719150
	0.598673
	-0.233705
	-0.203103
	0.583211
	-0.719150
	0.601572
	-0.235316
	-0.202137
	0.580634
	-0.719795
	0.597707
	-0.234027
	-0.205036
	0.581600
	-0.722050
	0.598673
	-0.237249
	-0.204392
	0.579668
	-0.720117
	0.598029
	-0.234994
	-0.206002
	0.580312
	-0.722050
	0.598673
	-0.236604
	-0.205358
	0.579023
	-0.721405
	0.597385
	-0.236604
	-0.206647
	0.580312
	-0.723016
	0.598673
	-0.236604
	-0.204392
	0.579346
	-0.720761
	0.597063
	-0.234672
	-0.205680
	0.580956
	-0.721727
	0.598995
	-0.235960
	-0.204714
	0.579668
	-0.720439
	0.598351
	-0.233705
	-0.205036
	0.581600
	-0.722050
	0.599640
	-0.236282
	-0.204070
	0.581923
	-0.719795
	0.599317
	-0.234350
	-0.205358
	0.581278
	-0.720117
	0.599640
	-0.234350
	-0.204392
	0.580956
	-0.719473
	0.598029
	-0.234994
	-0.205036
	0.581923
	-0.721083
	0.598995
	-0.234672
	-0.203425
	0.580634
	-0.721727
	0.597707
	-0.235638
	-0.205036
	0.580634
	-0.720117
	0.598351
	-0.234672
	-0.205036
	0.580956
	-0.721083
	0.597707
	-0.235316
	-0.204392
	0.579990
	-0.722372
	0.596096
	-0.235638
	-0.206324
	0.581600
	-0.722694
	0.599962
	-0.236604
	-0.203747
	0.580312
	-0.720117
	0.596740
	-0.233061
	-0.206002
	0.582889
	-0.722050
	0.599640
	-0.237571
	-0.202459
	0.581278
	-0.718828
	0.598029
	-0.232095
	-0.206324
	0.582245
	-0.723660
	0.601250
	-0.236927
	-0.202781
	0.579023
	-0.719795
	0.594163
	-0.234672
	-0.209224
	0.580634
	-0.724304
	0.599640
	-0.237893
	-0.205036
	0.576768
	-0.721727
	0.594486
	-0.234350
	-0.208902
	0.581600
	-0.725271
	0.598995
	-0.239181
	-0.206324
	0.576446
	-0.720761
	0.595452
	-0.233383
	-0.208579
	0.582567
	-0.724627
	0.598995
	-0.237571
	-0.203425
	0.577735
	-0.719150
	0.596418
	-0.233383
	-0.207613
	0.582567
	-0.723982
	0.599317
	-0.238215
	-0.204070
	0.578701
	-0.718828
	0.595452
	-0.233705
	-0.208257
	0.583533
	-0.723338
	0.599640
	-0.237249
	-0.205358
	0.576124
	-0.722372
	0.593197
	-0.235960
	-0.209546
	0.580312
	-0.723982
	0.598351
	-0.238537
	-0.205680
	0.577735
	-0.720761
	0.595130
	-0.234027
	-0.207613
	0.580312
	-0.724949
	0.597385
	-0.237249
	-0.204714
	0.579346
	-0.719473
	0.596096
	-0.234672
	-0.207613
	0.581923
	-0.722050
	0.599317
	-0.236282
	-0.204714
	0.579990
	-0.721405
	0.596740
	-0.233383
	-0.205680
	0.582245
	-0.721083
	0.599640
	-0.234672
	-0.204714
	0.579990
	-0.720761
	0.597385
	-0.234672
	-0.206002
	0.581600
	-0.722050
	0.597707
	-0.236604
	-0.206324
	0.579990
	-0.721405
	0.597707
	-0.235316
	-0.207935
	0.579668
	-0.723338
	0.596740
	-0.235316
	-0.205680
	0.580956
	-0.720761
	0.597385
	-0.234672
	-0.206324
	0.579990
	-0.721727
	0.598673
	-0.234027
	-0.204714
	0.581278
	-0.721083
	0.598673
	-0.233705
	-0.204714
	0.582889
	-0.719795
	0.598995
	-0.234994
	-0.205680
	0.581600
	-0.721727
	0.597063
	-0.234672
	-0.205680
	0.580312
	-0.722372
	0.595452
	-0.235316
	-0.208257
	0.580956
	-0.723338
	0.598995
	-0.236282
	-0.206002
	0.578701
	-0.722050
	0.596096
	-0.233705
	-0.208257
	0.582889
	-0.723660
	0.597707
	-0.237893
	-0.205358
	0.579346
	-0.719473
	0.596096
	-0.233061
	-0.207291
	0.582889
	-0.723338
	0.599640
	-0.236282
	-0.204070
	0.579346
	-0.719795
	0.596096
	-0.233383
	-0.208257
	0.583211
	-0.723982
	0.598995
	-0.236604
	-0.203747
	0.580956
	-0.719795
	0.596418
	-0.232739
	-0.206969
	0.582245
	-0.723338
	0.599317
	-0.236282
	-0.205036
	0.577735
	-0.720761
	0.594486
	-0.232739
	-0.208579
	0.582889
	-0.723982
	0.598673
	-0.236604
	-0.204714
	0.580634
	-0.718828
	0.596418
	-0.231128
	-0.207935
	0.582889
	-0.723982
	0.599640
	-0.235960
	-0.203425
	0.579346
	-0.718506
	0.595130
	-0.232739
	-0.207613
	0.583855
	-0.722694
	0.600928
	-0.235638
	-0.202781
	0.578701
	-0.720117
	0.594486
	-0.233061
	-0.209224
	0.582567
	-0.724627
	0.598673
	-0.237571
	-0.205358
	0.579023
	-0.719150
	0.595452
	-0.230162
	-0.208257
	0.584177
	-0.724627
	0.598029
	-0.237571
	-0.205036
	0.578057
	-0.719473
	0.594808
	-0.234672
	-0.211156
	0.581278
	-0.723982
	0.598351
	-0.236927
	-0.204392
	0.579668
	-0.719150
	0.595452
	-0.232095
	-0.207291
	0.584177
	-0.723016
	0.600284
	-0.235316
	-0.204714
	0.579023
	-0.719795
	0.595774
	-0.232739
	-0.208579
	0.583533
	-0.723016
	0.598351
	-0.236604
	-0.205358
	0.578701
	-0.721727
	0.595452
	-0.233705
	-0.207935
	0.581600
	-0.723338
	0.597707
	-0.235316
	-0.204392
	0.580634
	-0.719473
	0.597063
	-0.231773
	-0.207291
	0.583211
	-0.721405
	0.599962
	-0.233061
	-0.203747
	0.582245
	-0.719473
	0.596740
	-0.232095
	-0.207291
	0.583855
	-0.722050
	0.599640
	-0.234994
	-0.205036
	0.579990
	-0.719150
	0.596096
	-0.232739
	-0.207291
	0.582245
	-0.723660
	0.597707
	-0.236604
	-0.206647
	0.580312
	-0.720117
	0.598351
	-0.232095
	-0.207291
	0.582567
	-0.722372
	0.597707
	-0.234672
	-0.206002
	0.580956
	-0.721083
	0.595130
	-0.234994
	-0.207935
	0.581923
	-0.721727
	0.598029
	-0.234350
	-0.206002
	0.581600
	-0.721083
	0.597385
	-0.232739
	-0.206324
	0.583533
	-0.721405
	0.599962
	-0.234672
	-0.204714
	0.581923
	-0.718828
	0.597063
	-0.232095
	-0.206969
	0.583855
	-0.722372
	0.598029
	-0.234672
	-0.205358
	0.581600
	-0.719473
	0.597063
	-0.231773
	-0.208257
	0.582245
	-0.723660
	0.597707
	-0.236604
	-0.205358
	0.579990
	-0.719795
	0.595130
	-0.233705
	-0.208257
	0.581600
	-0.722372
	0.599640
	-0.234672
	-0.205358
	0.580634
	-0.721083
	0.596740
	-0.233705
	-0.207291
	0.582889
	-0.721405
	0.597063
	-0.234350
	-0.206969
	0.581923
	-0.720761
	0.598351
	-0.232095
	-0.205036
	0.583211
	-0.720117
	0.597385
	-0.231450
	-0.206324
	0.584177
	-0.719795
	0.599640
	-0.233383
	-0.205358
	0.581278
	-0.719473
	0.596740
	-0.232095
	-0.207613
	0.582567
	-0.723338
	0.598029
	-0.236282
	-0.206969
	0.579023
	-0.721405
	0.594808
	-0.232417
	-0.210512
	0.581600
	-0.723982
	0.598029
	-0.235638
	-0.206002
	0.580312
	-0.719473
	0.595452
	-0.233061
	-0.208902
	0.582245
	-0.722694
	0.598673
	-0.235316
	-0.206324
	0.578701
	-0.720761
	0.594486
	-0.233383
	-0.207291
	0.583533
	-0.721405
	0.599317
	-0.233705
	-0.205358
	0.581278
	-0.719150
	0.597385
	-0.230806
	-0.206969
	0.584500
	-0.721727
	0.600606
	-0.234027
	-0.203103
	0.582889
	-0.718184
	0.597063
	-0.231450
	-0.208257
	0.583533
	-0.723016
	0.598351
	-0.234350
	-0.205358
	0.580634
	-0.720439
	0.593841
	-0.233383
	-0.209224
	0.581600
	-0.723982
	0.597385
	-0.236282
	-0.207613
	0.578057
	-0.721083
	0.594808
	-0.232417
	-0.210190
	0.583211
	-0.724627
	0.597385
	-0.236927
	-0.206647
	0.579346
	-0.720761
	0.593519
	-0.232417
	-0.210190
	0.581600
	-0.724949
	0.597707
	-0.236927
	-0.205680
	0.579990
	-0.719473
	0.595130
	-0.231450
	-0.208902
	0.584500
	-0.723338
	0.600284
	-0.234994
	-0.204070
	0.580956
	-0.718184
	0.595452
	-0.231128
	-0.207935
	0.584822
	-0.722694
	0.598995
	-0.236282
	-0.206969
	0.577735
	-0.721727
	0.593197
	-0.234027
	-0.211479
	0.582889
	-0.725593
	0.596096
	-0.236927
	-0.206969
	0.578057
	-0.720117
	0.592875
	-0.231773
	-0.210512
	0.581923
	-0.724627
	0.596740
	-0.237571
	-0.206969
	0.579023
	-0.720117
	0.594486
	-0.232095
	-0.209868
	0.583211
	-0.723338
	0.598995
	-0.235316
	-0.204392
	0.580956
	-0.719473
	0.594163
	-0.231773
	-0.207613
	0.586110
	-0.721083
	0.599317
	-0.235638
	-0.205358
	0.580956
	-0.718828
	0.595774
	-0.230162
	-0.208579
	0.583533
	-0.723660
	0.597385
	-0.234994
	-0.206647
	0.579668
	-0.720761
	0.594486
	-0.233383
	-0.210834
	0.583211
	-0.723982
	0.597707
	-0.234672
	-0.205680
	0.580956
	-0.719795
	0.595130
	-0.233061
	-0.209224
	0.583533
	-0.723660
	0.597707
	-0.234350
	-0.207291
	0.580312
	-0.720117
	0.596418
	-0.231128
	-0.206969
	0.584177
	-0.720439
	0.597707
	-0.232739
	-0.206002
	0.583211
	-0.719473
	0.598673
	-0.230162
	-0.205036
	0.582889
	-0.720117
	0.597063
	-0.232095
	-0.207613
	0.584177
	-0.720761
	0.598673
	-0.233061
	-0.206324
	0.581923
	-0.719795
	0.596740
	-0.231128
	-0.208579
	0.583211
	-0.723660
	0.596418
	-0.235960
	-0.207935
	0.579346
	-0.721083
	0.594163
	-0.232417
	-0.211479
	0.583211
	-0.724627
	0.597385
	-0.234994
	-0.206324
	0.579668
	-0.720761
	0.592875
	-0.232095
	-0.209868
	0.583855
	-0.723016
	0.599640
	-0.233705
	-0.204070
	0.581600
	-0.718184
	0.595774
	-0.229518
	-0.208257
	0.585466
	-0.722694
	0.598673
	-0.234672
	-0.204714
	0.580312
	-0.719473
	0.593519
	-0.231450
	-0.210190
	0.583533
	-0.724304
	0.597707
	-0.235638
	-0.206324
	0.579990
	-0.720439
	0.594486
	-0.231773
	-0.210512
	0.583855
	-0.723982
	0.597707
	-0.234994
	-0.205680
	0.579990
	-0.721083
	0.593197
	-0.233383
	-0.209868
	0.582245
	-0.723338
	0.598351
	-0.234350
	-0.206969
	0.580634
	-0.719795
	0.595452
	-0.231128
	-0.209224
	0.584500
	-0.723660
	0.597063
	-0.233383
	-0.205680
	0.581923
	-0.718506
	0.596096
	-0.229518
	-0.208257
	0.584500
	-0.721727
	0.598995
	-0.233061
	-0.205036
	0.581278
	-0.719473
	0.596096
	-0.231773
	-0.209868
	0.582889
	-0.723016
	0.598029
	-0.234027
	-0.206969
	0.579668
	-0.721083
	0.593841
	-0.232739
	-0.211156
	0.583855
	-0.723982
	0.596418
	-0.236604
	-0.207935
	0.579668
	-0.721083
	0.594486
	-0.231450
	-0.209546
	0.584177
	-0.723338
	0.597385
	-0.234672
	-0.206324
	0.581278
	-0.719150
	0.595452
	-0.230484
	-0.210834
	0.584822
	-0.722372
	0.598351
	-0.233705
	-0.205358
	0.581923
	-0.718506
	0.595130
	-0.229196
	-0.207935
	0.584822
	-0.722372
	0.598351
	-0.234027
	-0.207935
	0.580634
	-0.721405
	0.593841
	-0.232417
	-0.210512
	0.582567
	-0.723016
	0.596740
	-0.234027
	-0.207935
	0.580956
	-0.721727
	0.595452
	-0.232095
	-0.208257
	0.582245
	-0.723660
	0.595774
	-0.233061
	-0.207935
	0.582567
	-0.720761
	0.597063
	-0.232095
	-0.208902
	0.583533
	-0.721083
	0.597707
	-0.230806
	-0.206969
	0.583533
	-0.721405
	0.597063
	-0.231450
	-0.208579
	0.583855
	-0.720761
	0.598351
	-0.232095
	-0.208257
	0.581923
	-0.721405
	0.596740
	-0.230484
	-0.208257
	0.585466
	-0.719473
	0.598029
	-0.232739
	-0.207935
	0.582245
	-0.721083
	0.595452
	-0.232417
	-0.210834
	0.581600
	-0.724304
	0.596096
	-0.234672
	-0.207613
	0.580312
	-0.720439
	0.594808
	-0.231773
	-0.210190
	0.583533
	-0.723338
	0.598351
	-0.234027
	-0.206647
	0.580312
	-0.719473
	0.595452
	-0.229196
	-0.208579
	0.586432
	-0.721405
	0.599317
	-0.233061
	-0.206324
	0.580312
	-0.719473
	0.593841
	-0.229840
	-0.210512
	0.585144
	-0.723660
	0.598029
	-0.234672
	-0.206002
	0.581923
	-0.718828
	0.595130
	-0.229196
	-0.210512
	0.585144
	-0.723982
	0.598673
	-0.233705
	-0.206002
	0.580634
	-0.719795
	0.592875
	-0.230162
	-0.211156
	0.583211
	-0.723982
	0.596740
	-0.234994
	-0.207291
	0.578057
	-0.721083
	0.592231
	-0.230806
	-0.210834
	0.583855
	-0.725271
	0.596096
	-0.236282
	-0.207935
	0.579990
	-0.720761
	0.592553
	-0.230806
	-0.212123
	0.584177
	-0.723982
	0.598029
	-0.234350
	-0.207291
	0.580312
	-0.718828
	0.594486
	-0.231128
	-0.210834
	0.584822
	-0.723660
	0.598673
	-0.232739
	-0.204714
	0.582245
	-0.718828
	0.594808
	-0.230162
	-0.210512
	0.586110
	-0.723338
	0.598673
	-0.234350
	-0.207291
	0.579990
	-0.720117
	0.593519
	-0.230162
	-0.210834
	0.585144
	-0.725271
	0.597707
	-0.235960
	-0.207935
	0.579346
	-0.720761
	0.591909
	-0.231773
	-0.213411
	0.582245
	-0.725915
	0.596096
	-0.234350
	-0.207935
	0.579990
	-0.719795
	0.593197
	-0.230162
	-0.211156
	0.585466
	-0.723016
	0.598995
	-0.233061
	-0.206324
	0.581923
	-0.718828
	0.595774
	-0.229840
	-0.209868
	0.586754
	-0.723338
	0.598351
	-0.232739
	-0.206647
	0.582567
	-0.719473
	0.595452
	-0.227263
	-0.208579
	0.586110
	-0.722694
	0.597707
	-0.233061
	-0.206324
	0.581600
	-0.719473
	0.594486
	-0.229518
	-0.211156
	0.584822
	-0.723338
	0.597707
	-0.233061
	-0.206324
	0.581278
	-0.720761
	0.593197
	-0.230162
	-0.211156
	0.583855
	-0.724304
	0.596740
	-0.234350
	-0.208579
	0.580312
	-0.720439
	0.593519
	-0.230484
	-0.209868
	0.585144
	-0.721727
	0.597385
	-0.233705
	-0.207291
	0.581600
	-0.718828
	0.595130
	-0.227907
	-0.209546
	0.585144
	-0.722694
	0.598029
	-0.233061
	-0.206324
	0.581923
	-0.718184
	0.594486
	-0.229840
	-0.210834
	0.585788
	-0.722372
	0.599962
	-0.232739
	-0.205358
	0.581600
	-0.720117
	0.592553
	-0.230162
	-0.211801
	0.585466
	-0.723016
	0.597707
	-0.234027
	-0.208579
	0.580634
	-0.720117
	0.592553
	-0.230484
	-0.212445
	0.583533
	-0.725271
	0.596096
	-0.235316
	-0.208257
	0.579990
	-0.719473
	0.593197
	-0.229196
	-0.212445
	0.584822
	-0.724627
	0.597385
	-0.234350
	-0.206002
	0.581600
	-0.719150
	0.594486
	-0.229518
	-0.210512
	0.586432
	-0.721727
	0.599640
	-0.231128
	-0.205358
	0.582567
	-0.718184
	0.594808
	-0.227263
	-0.209868
	0.586432
	-0.722694
	0.598351
	-0.233705
	-0.207613
	0.581278
	-0.719150
	0.593519
	-0.229840
	-0.211156
	0.585466
	-0.724627
	0.597385
	-0.233705
	-0.206647
	0.581923
	-0.719150
	0.592553
	-0.229840
	-0.212767
	0.583533
	-0.725593
	0.596096
	-0.235316
	-0.208257
	0.580312
	-0.720439
	0.591909
	-0.230806
	-0.212445
	0.584500
	-0.723982
	0.598673
	-0.233383
	-0.208257
	0.580634
	-0.720761
	0.593841
	-0.229196
	-0.210834
	0.585466
	-0.723016
	0.597385
	-0.232417
	-0.206647
	0.583211
	-0.716573
	0.596096
	-0.228229
	-0.209546
	0.585466
	-0.722050
	0.598673
	-0.232739
	-0.205680
	0.582245
	-0.719150
	0.593519
	-0.229518
	-0.212445
	0.586754
	-0.723338
	0.597707
	-0.233383
	-0.207613
	0.581278
	-0.720117
	0.593841
	-0.229196
	-0.211479
	0.585466
	-0.723660
	0.597707
	-0.234350
	-0.208257
	0.580312
	-0.720439
	0.592553
	-0.230806
	-0.212123
	0.584500
	-0.724627
	0.596740
	-0.233705
	-0.207613
	0.581600
	-0.719473
	0.594163
	-0.229518
	-0.212767
	0.585788
	-0.723660
	0.597063
	-0.231773
	-0.206647
	0.582567
	-0.719150
	0.594808
	-0.227907
	-0.209546
	0.587077
	-0.721727
	0.598673
	-0.231773
	-0.206647
	0.582567
	-0.718828
	0.594808
	-0.228551
	-0.209868
	0.587399
	-0.721405
	0.597063
	-0.231773
	-0.207613
	0.581923
	-0.720439
	0.593519
	-0.229840
	-0.210834
	0.584500
	-0.724304
	0.595452
	-0.233705
	-0.208579
	0.581923
	-0.719795
	0.593197
	-0.229518
	-0.213411
	0.584177
	-0.724304
	0.596418
	-0.232739
	-0.208257
	0.581278
	-0.720117
	0.592553
	-0.229840
	-0.211801
	0.585144
	-0.723982
	0.597707
	-0.233705
	-0.208579
	0.581278
	-0.718828
	0.594808
	-0.228551
	-0.211801
	0.586110
	-0.721727
	0.596418
	-0.232417
	-0.208257
	0.582567
	-0.720117
	0.594163
	-0.228873
	-0.211801
	0.584822
	-0.722050
	0.597063
	-0.231128
	-0.206969
	0.584177
	-0.718828
	0.595130
	-0.229840
	-0.209868
	0.585466
	-0.721727
	0.598029
	-0.229518
	-0.206969
	0.585466
	-0.720439
	0.596740
	-0.229518
	-0.207613
	0.584822
	-0.719473
	0.595452
	-0.229518
	-0.211801
	0.584500
	-0.723016
	0.597385
	-0.231773
	-0.208902
	0.581923
	-0.720439
	0.593841
	-0.229840
	-0.212445
	0.585144
	-0.723982
	0.596096
	-0.233705
	-0.209546
	0.580312
	-0.720117
	0.591909
	-0.229518
	-0.213411
	0.585144
	-0.724627
	0.595774
	-0.234350
	-0.209868
	0.579668
	-0.721083
	0.592231
	-0.229196
	-0.212767
	0.585466
	-0.723660
	0.596096
	-0.232417
	-0.208579
	0.581278
	-0.719473
	0.592875
	-0.228873
	-0.212445
	0.586754
	-0.721727
	0.599640
	-0.230806
	-0.206969
	0.582245
	-0.719150
	0.595130
	-0.228551
	-0.211479
	0.586432
	-0.723338
	0.596740
	-0.233383
	-0.209224
	0.581278
	-0.719150
	0.594163
	-0.229196
	-0.211156
	0.585144
	-0.723338
	0.596418
	-0.231773
	-0.208579
	0.583211
	-0.721083
	0.594808
	-0.228873
	-0.210834
	0.585466
	-0.721727
	0.596096
	-0.230806
	-0.209224
	0.585144
	-0.719795
	0.594808
	-0.231450
	-0.210834
	0.582245
	-0.720761
	0.595774
	-0.229518
	-0.210834
	0.585144
	-0.723016
	0.595452
	-0.231450
	-0.208579
	0.582567
	-0.720117
	0.593519
	-0.228551
	-0.212445
	0.585788
	-0.723660
	0.596740
	-0.232095
	-0.208579
	0.580312
	-0.721083
	0.591909
	-0.229196
	-0.213411
	0.584500
	-0.724304
	0.596740
	-0.233383
	-0.208257
	0.581600
	-0.719795
	0.592553
	-0.228551
	-0.213411
	0.584177
	-0.724949
	0.595774
	-0.232417
	-0.209224
	0.582889
	-0.719795
	0.593841
	-0.228873
	-0.211479
	0.584177
	-0.722372
	0.595452
	-0.230484
	-0.209546
	0.583211
	-0.721727
	0.594163
	-0.230484
	-0.210512
	0.583855
	-0.721083
	0.595774
	-0.229840
	-0.210834
	0.583855
	-0.721727
	0.595774
	-0.229518
	-0.209224
	0.584822
	-0.719150
	0.595452
	-0.228551
	-0.210512
	0.585144
	-0.720439
	0.597707
	-0.228873
	-0.208257
	0.584500
	-0.720117
	0.595452
	-0.228551
	-0.209546
	0.585144
	-0.722372
	0.596740
	-0.231128
	-0.210512
	0.583533
	-0.719795
	0.592553
	-0.228873
	-0.212123
	0.585144
	-0.722372
	0.595774
	-0.231450
	-0.209224
	0.583211
	-0.718828
	0.593519
	-0.227585
	-0.211479
	0.585144
	-0.723982
	0.596740
	-0.231773
	-0.208579
	0.582245
	-0.720117
	0.592553
	-0.227585
	-0.212445
	0.586432
	-0.723338
	0.596740
	-0.231128
	-0.208257
	0.581278
	-0.719795
	0.592875
	-0.228229
	-0.212767
	0.586110
	-0.723982
	0.596096
	-0.234027
	-0.208902
	0.580634
	-0.720439
	0.593197
	-0.227907
	-0.214056
	0.585466
	-0.723982
	0.596096
	-0.232739
	-0.208902
	0.582889
	-0.718506
	0.592553
	-0.228551
	-0.213733
	0.586110
	-0.723982
	0.596096
	-0.231450
	-0.208257
	0.582889
	-0.719795
	0.593197
	-0.227263
	-0.212445
	0.586754
	-0.721405
	0.597707
	-0.230806
	-0.208902
	0.581923
	-0.721083
	0.593841
	-0.229518
	-0.212123
	0.586110
	-0.722694
	0.595452
	-0.230806
	-0.209546
	0.583211
	-0.720761
	0.592553
	-0.229518
	-0.213411
	0.585788
	-0.722050
	0.596740
	-0.230162
	-0.209546
	0.582889
	-0.721083
	0.593197
	-0.229840
	-0.212767
	0.584822
	-0.722694
	0.595774
	-0.230484
	-0.210190
	0.583533
	-0.721083
	0.595774
	-0.228551
	-0.209868
	0.585144
	-0.719795
	0.595452
	-0.229518
	-0.211801
	0.585144
	-0.720761
	0.596740
	-0.228229
	-0.207935
	0.585144
	-0.719473
	0.594163
	-0.227907
	-0.212123
	0.586110
	-0.722050
	0.595774
	-0.232417
	-0.211156
	0.581600
	-0.721083
	0.591586
	-0.229196
	-0.212767
	0.585144
	-0.725271
	0.595452
	-0.231773
	-0.209546
	0.581600
	-0.720439
	0.592553
	-0.227907
	-0.214056
	0.585144
	-0.723982
	0.594808
	-0.232417
	-0.209546
	0.582567
	-0.721083
	0.591586
	-0.227907
	-0.214056
	0.584177
	-0.724949
	0.595452
	-0.232739
	-0.208257
	0.581923
	-0.720439
	0.591586
	-0.227585
	-0.213733
	0.585466
	-0.724304
	0.597063
	-0.232739
	-0.209868
	0.581923
	-0.719473
	0.591909
	-0.227585
	-0.213733
	0.585466
	-0.725593
	0.595130
	-0.233383
	-0.211479
	0.579990
	-0.720439
	0.590620
	-0.229518
	-0.216310
	0.584500
	-0.724627
	0.596096
	-0.232739
	-0.209868
	0.581278
	-0.721727
	0.591586
	-0.229196
	-0.215666
	0.586110
	-0.723982
	0.596740
	-0.231128
	-0.208579
	0.583533
	-0.718184
	0.593841
	-0.225652
	-0.211156
	0.588043
	-0.721727
	0.597385
	-0.230484
	-0.209224
	0.583855
	-0.719150
	0.594163
	-0.226941
	-0.212123
	0.585466
	-0.723338
	0.595774
	-0.230484
	-0.209546
	0.583855
	-0.719795
	0.592875
	-0.228551
	-0.213733
	0.585788
	-0.723016
	0.595452
	-0.230806
	-0.209868
	0.582567
	-0.721727
	0.591264
	-0.228873
	-0.213089
	0.585144
	-0.723016
	0.596418
	-0.230806
	-0.209868
	0.582889
	-0.720117
	0.593519
	-0.227585
	-0.212123
	0.588365
	-0.722050
	0.597385
	-0.229196
	-0.207935
	0.585466
	-0.718184
	0.596096
	-0.225330
	-0.211156
	0.585788
	-0.722694
	0.596740
	-0.230484
	-0.208579
	0.583533
	-0.719473
	0.592553
	-0.227907
	-0.213411
	0.586110
	-0.722694
	0.597063
	-0.229196
	-0.209224
	0.583855
	-0.720761
	0.591909
	-0.228551
	-0.212445
	0.586432
	-0.722372
	0.595452
	-0.230806
	-0.210512
	0.584822
	-0.719473
	0.593519
	-0.227907
	-0.211156
	0.587077
	-0.721727
	0.596418
	-0.228551
	-0.209546
	0.586432
	-0.720439
	0.596096
	-0.227263
	-0.209546
	0.588043
	-0.719473
	0.595774
	-0.225974
	-0.210190
	0.587399
	-0.720117
	0.596418
	-0.228873
	-0.209546
	0.585144
	-0.719150
	0.594808
	-0.226941
	-0.211801
	0.586432
	-0.722694
	0.594486
	-0.229518
	-0.210512
	0.584500
	-0.720117
	0.592875
	-0.228229
	-0.213411
	0.585466
	-0.722694
	0.596418
	-0.230806
	-0.210190
	0.582567
	-0.720117
	0.591586
	-0.226941
	-0.213411
	0.587721
	-0.723338
	0.597385
	-0.229840
	-0.208579
	0.583211
	-0.718184
	0.592553
	-0.224686
	-0.213089
	0.587721
	-0.723016
	0.597063
	-0.229840
	-0.208902
	0.583855
	-0.718184
	0.593519
	-0.225330
	-0.212767
	0.588043
	-0.722372
	0.597385
	-0.228551
	-0.208579
	0.584822
	-0.718506
	0.593841
	-0.226619
	-0.213733
	0.587399
	-0.722050
	0.596096
	-0.229840
	-0.210190
	0.581600
	-0.720117
	0.591264
	-0.226296
	-0.214056
	0.586754
	-0.723338
	0.595130
	-0.231773
	-0.210512
	0.582889
	-0.720117
	0.592231
	-0.226941
	-0.213089
	0.587077
	-0.722050
	0.597707
	-0.229196
	-0.209868
	0.584822
	-0.719150
	0.592553
	-0.226619
	-0.212445
	0.586432
	-0.722372
	0.595452
	-0.229196
	-0.209868
	0.586110
	-0.719150
	0.594486
	-0.226296
	-0.210512
	0.587399
	-0.720439
	0.595774
	-0.227585
	-0.211156
	0.585788
	-0.721405
	0.595130
	-0.227263
	-0.209868
	0.587399
	-0.719150
	0.594163
	-0.228229
	-0.212445
	0.587077
	-0.722050
	0.595452
	-0.230162
	-0.210190
	0.583211
	-0.720761
	0.592875
	-0.226619
	-0.213411
	0.585788
	-0.723338
	0.595130
	-0.230484
	-0.210834
	0.583533
	-0.719795
	0.592875
	-0.225974
	-0.212123
	0.588365
	-0.722372
	0.596740
	-0.229196
	-0.209868
	0.583855
	-0.719150
	0.593841
	-0.226941
	-0.214378
	0.585788
	-0.723016
	0.596418
	-0.229518
	-0.208902
	0.584500
	-0.719150
	0.592231
	-0.226619
	-0.212767
	0.587721
	-0.722372
	0.595452
	-0.230484
	-0.212123
	0.581923
	-0.721083
	0.591264
	-0.227585
	-0.215022
	0.586110
	-0.723982
	0.594163
	-0.230162
	-0.211156
	0.583211
	-0.721083
	0.592553
	-0.227907
	-0.214378
	0.585788
	-0.723982
	0.595452
	-0.230806
	-0.209868
	0.583855
	-0.719150
	0.592553
	-0.228229
	-0.215988
	0.586432
	-0.723982
	0.595452
	-0.230162
	-0.209868
	0.583855
	-0.720439
	0.591909
	-0.226296
	-0.214378
	0.586432
	-0.723982
	0.596096
	-0.230806
	-0.211156
	0.582567
	-0.719795
	0.591586
	-0.226941
	-0.214378
	0.587077
	-0.724627
	0.594808
	-0.232095
	-0.211156
	0.583211
	-0.719795
	0.591909
	-0.225652
	-0.214056
	0.588365
	-0.723016
	0.595452
	-0.230162
	-0.209224
	0.583533
	-0.718828
	0.590942
	-0.226296
	-0.215666
	0.586432
	-0.723982
	0.595452
	-0.229840
	-0.210512
	0.583855
	-0.720117
	0.593519
	-0.226619
	-0.213411
	0.588365
	-0.721727
	0.596096
	-0.229196
	-0.210512
	0.584500
	-0.719150
	0.592875
	-0.226941
	-0.212767
	0.585144
	-0.722050
	0.593519
	-0.228229
	-0.213089
	0.584500
	-0.722372
	0.593197
	-0.228873
	-0.213733
	0.585144
	-0.721083
	0.594486
	-0.226619
	-0.211479
	0.586432
	-0.720117
	0.594486
	-0.227263
	-0.212445
	0.586432
	-0.720439
	0.596418
	-0.226619
	-0.211156
	0.585144
	-0.719795
	0.594163
	-0.226296
	-0.212123
	0.587399
	-0.721405
	0.594808
	-0.229196
	-0.211156
	0.585144
	-0.719473
	0.593841
	-0.225974
	-0.213733
	0.586754
	-0.723982
	0.594163
	-0.230484
	-0.211801
	0.583533
	-0.719795
	0.591586
	-0.227263
	-0.215022
	0.587077
	-0.723660
	0.595774
	-0.230484
	-0.210190
	0.583855
	-0.719473
	0.590942
	-0.226296
	-0.215344
	0.587399
	-0.723660
	0.596740
	-0.229196
	-0.211156
	0.583211
	-0.720117
	0.591264
	-0.225974
	-0.215022
	0.588043
	-0.723660
	0.595130
	-0.230484
	-0.211156
	0.582889
	-0.719150
	0.591909
	-0.225330
	-0.215022
	0.586432
	-0.724627
	0.595452
	-0.231128
	-0.210834
	0.582567
	-0.719795
	0.590942
	-0.227907
	-0.216955
	0.587077
	-0.724627
	0.595130
	-0.230484
	-0.211801
	0.582567
	-0.720117
	0.590942
	-0.225974
	-0.215022
	0.587721
	-0.723338
	0.597385
	-0.228873
	-0.209546
	0.585144
	-0.718828
	0.593197
	-0.224686
	-0.214056
	0.588687
	-0.723982
	0.594486
	-0.229840
	-0.211801
	0.582567
	-0.719795
	0.590620
	-0.226941
	-0.215988
	0.586110
	-0.724949
	0.593841
	-0.230484
	-0.212445
	0.582245
	-0.720761
	0.589976
	-0.228229
	-0.216633
	0.586432
	-0.723982
	0.593519
	-0.229840
	-0.212767
	0.584177
	-0.720117
	0.592231
	-0.225652
	-0.214056
	0.588365
	-0.722050
	0.596740
	-0.228229
	-0.210190
	0.585144
	-0.718828
	0.593519
	-0.225008
	-0.213733
	0.588365
	-0.722372
	0.595452
	-0.227907
	-0.210512
	0.585466
	-0.718184
	0.593197
	-0.225330
	-0.214700
	0.587077
	-0.723660
	0.595130
	-0.228551
	-0.211801
	0.582889
	-0.722050
	0.589976
	-0.227907
	-0.216310
	0.587399
	-0.723338
	0.595452
	-0.229518
	-0.212123
	0.583855
	-0.719473
	0.591909
	-0.225330
	-0.215022
	0.588365
	-0.721727
	0.595452
	-0.227585
	-0.210190
	0.586754
	-0.718506
	0.593197
	-0.224686
	-0.214378
	0.587721
	-0.723338
	0.595452
	-0.228551
	-0.211156
	0.584822
	-0.719473
	0.591909
	-0.226296
	-0.215666
	0.588365
	-0.721727
	0.595452
	-0.226941
	-0.210834
	0.584500
	-0.720117
	0.592231
	-0.225974
	-0.214378
	0.587399
	-0.720761
	0.594163
	-0.228551
	-0.212767
	0.585144
	-0.720761
	0.592875
	-0.225652
	-0.214056
	0.587721
	-0.720761
	0.595452
	-0.226296
	-0.211479
	0.587399
	-0.719473
	0.592553
	-0.226941
	-0.214378
	0.586110
	-0.722050
	0.593841
	-0.228229
	-0.212123
	0.586110
	-0.719795
	0.592231
	-0.227585
	-0.215022
	0.586110
	-0.721083
	0.594808
	-0.226941
	-0.212123
	0.585144
	-0.721727
	0.592875
	-0.226941
	-0.213089
	0.588043
	-0.720761
	0.594163
	-0.226941
	-0.213089
	0.588043
	-0.719150
	0.595774
	-0.224364
	-0.210190
	0.588043
	-0.719150
	0.595452
	-0.224364
	-0.211156
	0.589009
	-0.719795
	0.595130
	-0.228229
	-0.211801
	0.585144
	-0.720439
	0.592875
	-0.225652
	-0.213089
	0.587399
	-0.721083
	0.595130
	-0.227263
	-0.213733
	0.585788
	-0.720761
	0.593841
	-0.225974
	-0.212767
	0.587399
	-0.720439
	0.594808
	-0.225008
	-0.212123
	0.588365
	-0.719473
	0.595452
	-0.227263
	-0.212445
	0.586110
	-0.719473
	0.594808
	-0.225652
	-0.212445
	0.587399
	-0.720761
	0.594808
	-0.224686
	-0.211479
	0.589332
	-0.719150
	0.595774
	-0.225330
	-0.213411
	0.587077
	-0.720117
	0.594163
	-0.225652
	-0.212445
	0.587721
	-0.721083
	0.593519
	-0.227907
	-0.214378
	0.585466
	-0.720761
	0.592875
	-0.226941
	-0.214056
	0.586432
	-0.722372
	0.593197
	-0.227263
	-0.212767
	0.586432
	-0.720761
	0.591909
	-0.225974
	-0.214700
	0.588043
	-0.720761
	0.593841
	-0.225652
	-0.212445
	0.586110
	-0.721083
	0.593197
	-0.225330
	-0.213089
	0.588365
	-0.720761
	0.593197
	-0.228551
	-0.214056
	0.585466
	-0.721083
	0.591586
	-0.225974
	-0.214378
	0.587077
	-0.722050
	0.593197
	-0.227263
	-0.213411
	0.586110
	-0.721405
	0.592875
	-0.225330
	-0.215022
	0.586754
	-0.722372
	0.594163
	-0.226296
	-0.212767
	0.586754
	-0.720761
	0.593519
	-0.225652
	-0.214056
	0.587399
	-0.719795
	0.594486
	-0.225330
	-0.214378
	0.587077
	-0.722372
	0.594163
	-0.226619
	-0.213089
	0.585788
	-0.720117
	0.591586
	-0.226619
	-0.214378
	0.587077
	-0.722050
	0.593197
	-0.227585
	-0.214056
	0.584177
	-0.721405
	0.591264
	-0.226296
	-0.216310
	0.586754
	-0.720761
	0.594808
	-0.226941
	-0.211801
	0.587399
	-0.718828
	0.595452
	-0.224364
	-0.211801
	0.589009
	-0.720439
	0.594808
	-0.226941
	-0.213089
	0.588043
	-0.720439
	0.592553
	-0.225974
	-0.215022
	0.586432
	-0.721727
	0.592875
	-0.225330
	-0.213733
	0.586110
	-0.722050
	0.591586
	-0.228551
	-0.215022
	0.584500
	-0.721727
	0.591909
	-0.226296
	-0.215988
	0.584500
	-0.724304
	0.592553
	-0.228551
	-0.213733
	0.585466
	-0.722050
	0.589976
	-0.226941
	-0.216310
	0.587399
	-0.723016
	0.594486
	-0.227585
	-0.211479
	0.584822
	-0.719150
	0.590942
	-0.224364
	-0.215988
	0.588043
	-0.723982
	0.594163
	-0.229518
	-0.213733
	0.582567
	-0.720761
