LabVIEW Measurement	
Writer_Version	2
Reader_Version	2
Separator	Tab
Decimal_Separator	.
Multi_Headings	No
X_Columns	No
Time_Pref	Absolute
Operator	orzr
Date	2022/04/28
Time	13:04:48.7978146499425217191
***End_of_Header***	
	
Channels	1	
Samples	10000	
Date	2022/04/28	
Time	13:04:48.7978146499425217191	
Y_Unit_Label	Volts	
X_Dimension	Time	
X0	0.0000000000000000E+0	
Delta_X	0.001000	
***End_of_Header***		
X_Value	Voltage	Comment
	1.028394
	2.861326
	0.734934
	-2.386474
	-2.217358
	1.025817
	2.860037
	0.738477
	-2.384219
	-2.220257
	1.022273
	2.863581
	0.738477
	-2.386152
	-2.222512
	1.026139
	2.863259
	0.735900
	-2.388084
	-2.218646
	1.029682
	2.863259
	0.734934
	-2.386152
	-2.217358
	1.027749
	2.859393
	0.737511
	-2.385185
	-2.218646
	1.022917
	2.863903
	0.738477
	-2.386796
	-2.221223
	1.026783
	2.864869
	0.736544
	-2.387762
	-2.219613
	1.029038
	2.862937
	0.733645
	-2.384541
	-2.218968
	1.027105
	2.859071
	0.738155
	-2.385829
	-2.218968
	1.023884
	2.860682
	0.740088
	-2.386474
	-2.221545
	1.026783
	2.863581
	0.739121
	-2.388729
	-2.219613
	1.028071
	2.864547
	0.735256
	-2.386796
	-2.217036
	1.027749
	2.861648
	0.734934
	-2.385507
	-2.219935
	1.023562
	2.860682
	0.738799
	-2.385507
	-2.222190
	1.024528
	2.862614
	0.738477
	-2.386796
	-2.224122
	1.026783
	2.862937
	0.736867
	-2.388084
	-2.219613
	1.027749
	2.862292
	0.736544
	-2.388084
	-2.218324
	1.026139
	2.858427
	0.738799
	-2.385829
	-2.218646
	1.022273
	2.860682
	0.738799
	-2.384863
	-2.222190
	1.023562
	2.864869
	0.738477
	-2.386152
	-2.223478
	1.026783
	2.863903
	0.737833
	-2.388406
	-2.220257
	1.028394
	2.861648
	0.734934
	-2.387118
	-2.219291
	1.026783
	2.860682
	0.736544
	-2.384863
	-2.218324
	1.023884
	2.861004
	0.737833
	-2.385507
	-2.218968
	1.022595
	2.863581
	0.739766
	-2.386152
	-2.222190
	1.024206
	2.863903
	0.737511
	-2.387118
	-2.221868
	1.027427
	2.865514
	0.736544
	-2.387118
	-2.218324
	1.027749
	2.862614
	0.733967
	-2.384863
	-2.219613
	1.027105
	2.859715
	0.737189
	-2.383575
	-2.219935
	1.024528
	2.860682
	0.738477
	-2.385185
	-2.222190
	1.022595
	2.861970
	0.739766
	-2.387118
	-2.222512
	1.027427
	2.862937
	0.737833
	-2.389695
	-2.218646
	1.027749
	2.862937
	0.737189
	-2.385829
	-2.218002
	1.025172
	2.860360
	0.734612
	-2.384219
	-2.219291
	1.023562
	2.860360
	0.738155
	-2.383252
	-2.221545
	1.023562
	2.863903
	0.739766
	-2.385507
	-2.223800
	1.026461
	2.863903
	0.737511
	-2.388729
	-2.220901
	1.028071
	2.861648
	0.735578
	-2.384863
	-2.218968
	1.024850
	2.858105
	0.740088
	-2.385829
	-2.220257
	1.022595
	2.861970
	0.740732
	-2.384541
	-2.223478
	1.024528
	2.864869
	0.739766
	-2.388084
	-2.220901
	1.026461
	2.865192
	0.737833
	-2.388406
	-2.218968
	1.024528
	2.862292
	0.735578
	-2.386796
	-2.219935
	1.026461
	2.860360
	0.735578
	-2.382930
	-2.219291
	1.024528
	2.861326
	0.739766
	-2.382608
	-2.222512
	1.021951
	2.864225
	0.739444
	-2.386796
	-2.224445
	1.026783
	2.863259
	0.737833
	-2.388084
	-2.221223
	1.028394
	2.861004
	0.735256
	-2.385507
	-2.218968
	1.027749
	2.860360
	0.737189
	-2.385507
	-2.219935
	1.023562
	2.860037
	0.742665
	-2.384863
	-2.220901
	1.022273
	2.861648
	0.741376
	-2.385829
	-2.224445
	1.023562
	2.862937
	0.738155
	-2.388084
	-2.219935
	1.025817
	2.864869
	0.735256
	-2.385507
	-2.218324
	1.023562
	2.859715
	0.739766
	-2.383575
	-2.222190
	1.022273
	2.864225
	0.738799
	-2.387440
	-2.222834
	1.026461
	2.863259
	0.735900
	-2.386152
	-2.219613
	1.026139
	2.859715
	0.739766
	-2.383897
	-2.219935
	1.021951
	2.861648
	0.741698
	-2.385829
	-2.222834
	1.025172
	2.864547
	0.739766
	-2.387440
	-2.218968
	1.024850
	2.863259
	0.734289
	-2.386796
	-2.218968
	1.024206
	2.862292
	0.738477
	-2.383575
	-2.220257
	1.023239
	2.861326
	0.739444
	-2.383575
	-2.225089
	1.023562
	2.863259
	0.739444
	-2.387118
	-2.223800
	1.026139
	2.863259
	0.737189
	-2.387762
	-2.219291
	1.026461
	2.859715
	0.737833
	-2.384219
	-2.220579
	1.021951
	2.859393
	0.740732
	-2.384863
	-2.223156
	1.020985
	2.863259
	0.739444
	-2.387118
	-2.222834
	1.024850
	2.864225
	0.736867
	-2.389373
	-2.222190
	1.025172
	2.862614
	0.735578
	-2.382608
	-2.219935
	1.023239
	2.858749
	0.739121
	-2.383897
	-2.222512
	1.021307
	2.863581
	0.739766
	-2.387762
	-2.224767
	1.024206
	2.862614
	0.738799
	-2.388406
	-2.220257
	1.027749
	2.861004
	0.737189
	-2.384219
	-2.220901
	1.024528
	2.860360
	0.740732
	-2.384863
	-2.221223
	1.019374
	2.862614
	0.742343
	-2.386796
	-2.223478
	1.024206
	2.864225
	0.738477
	-2.388406
	-2.219613
	1.025172
	2.862937
	0.736544
	-2.385507
	-2.219613
	1.023884
	2.861004
	0.738155
	-2.383897
	-2.221868
	1.019052
	2.860682
	0.739766
	-2.383897
	-2.223800
	1.023562
	2.864547
	0.739766
	-2.386152
	-2.223800
	1.025172
	2.862937
	0.737189
	-2.385507
	-2.221223
	1.024528
	2.859393
	0.739766
	-2.384541
	-2.221545
	1.020018
	2.860360
	0.741376
	-2.384219
	-2.223478
	1.023562
	2.863259
	0.739766
	-2.387440
	-2.220901
	1.027105
	2.865514
	0.735900
	-2.385507
	-2.220901
	1.023239
	2.860037
	0.739766
	-2.382930
	-2.222190
	1.022273
	2.860360
	0.741054
	-2.384219
	-2.223800
	1.022917
	2.863259
	0.740732
	-2.388406
	-2.219613
	1.025817
	2.864225
	0.737511
	-2.384541
	-2.219613
	1.022273
	2.860037
	0.739444
	-2.382608
	-2.220257
	1.021951
	2.862292
	0.741054
	-2.383575
	-2.226055
	1.022917
	2.863903
	0.740410
	-2.387440
	-2.223800
	1.026139
	2.863581
	0.739121
	-2.387440
	-2.221223
	1.023562
	2.860037
	0.740732
	-2.383897
	-2.220901
	1.020018
	2.860360
	0.740732
	-2.384541
	-2.223156
	1.019374
	2.865192
	0.740410
	-2.385829
	-2.223156
	1.024850
	2.865192
	0.739444
	-2.386152
	-2.221545
	1.024528
	2.860037
	0.736867
	-2.383252
	-2.222190
	1.021307
	2.860037
	0.742343
	-2.382286
	-2.222190
	1.020340
	2.862292
	0.741698
	-2.385829
	-2.223800
	1.024206
	2.863903
	0.741698
	-2.387118
	-2.220579
	1.023239
	2.861326
	0.736867
	-2.385507
	-2.221868
	1.021629
	2.861004
	0.739766
	-2.383575
	-2.222190
	1.019052
	2.863581
	0.742021
	-2.383252
	-2.224767
	1.026139
	2.863903
	0.741698
	-2.386152
	-2.223800
	1.026783
	2.862292
	0.738799
	-2.384863
	-2.220901
	1.024850
	2.860037
	0.738155
	-2.383575
	-2.219613
	1.022917
	2.860360
	0.742987
	-2.384541
	-2.223800
	1.022273
	2.864225
	0.743309
	-2.387118
	-2.223800
	1.024850
	2.865192
	0.739766
	-2.385507
	-2.220901
	1.023562
	2.864547
	0.738477
	-2.383252
	-2.219935
	1.022917
	2.861004
	0.740410
	-2.382608
	-2.221545
	1.021951
	2.862292
	0.743631
	-2.382930
	-2.225733
	1.024850
	2.863903
	0.742343
	-2.387118
	-2.225411
	1.022595
	2.864225
	0.739444
	-2.387440
	-2.218646
	1.023562
	2.862937
	0.739444
	-2.381964
	-2.220257
	1.020985
	2.861004
	0.742343
	-2.380998
	-2.224767
	1.020662
	2.866158
	0.742343
	-2.383897
	-2.225411
	1.022917
	2.862937
	0.741698
	-2.387762
	-2.220901
	1.023562
	2.861970
	0.738799
	-2.384541
	-2.219613
	1.022273
	2.860037
	0.742021
	-2.380998
	-2.221868
	1.020340
	2.863581
	0.741376
	-2.381642
	-2.226377
	1.020985
	2.863903
	0.741376
	-2.386474
	-2.225089
	1.025172
	2.861970
	0.740088
	-2.386474
	-2.221223
	1.026139
	2.861648
	0.739766
	-2.383897
	-2.222834
	1.022273
	2.858749
	0.741376
	-2.382930
	-2.220901
	1.019374
	2.862292
	0.743631
	-2.383575
	-2.222512
	1.019374
	2.865192
	0.742987
	-2.383575
	-2.223800
	1.022595
	2.865514
	0.742021
	-2.385507
	-2.224122
	1.024206
	2.864547
	0.739121
	-2.385507
	-2.223478
	1.023562
	2.861970
	0.738155
	-2.384541
	-2.221545
	1.023239
	2.859715
	0.740410
	-2.383252
	-2.220579
	1.022595
	2.861326
	0.745242
	-2.382930
	-2.224767
	1.018730
	2.863581
	0.743953
	-2.385829
	-2.224445
	1.021307
	2.867124
	0.742987
	-2.385829
	-2.223478
	1.021951
	2.863581
	0.740410
	-2.385829
	-2.221545
	1.024850
	2.863581
	0.738155
	-2.382930
	-2.223156
	1.022273
	2.859715
	0.738799
	-2.382286
	-2.223478
	1.020662
	2.859393
	0.742665
	-2.381964
	-2.222512
	1.020340
	2.859393
	0.743309
	-2.382608
	-2.223156
	1.020662
	2.861970
	0.744598
	-2.381320
	-2.224445
	1.018730
	2.861970
	0.742343
	-2.386152
	-2.226055
	1.021629
	2.863903
	0.742987
	-2.386796
	-2.222190
	1.022595
	2.863259
	0.740410
	-2.385507
	-2.221545
	1.023239
	2.861648
	0.740732
	-2.381642
	-2.220257
	1.020985
	2.860037
	0.742343
	-2.381964
	-2.222512
	1.018730
	2.862292
	0.742987
	-2.382286
	-2.224122
	1.018730
	2.863903
	0.742987
	-2.384219
	-2.225733
	1.024206
	2.864547
	0.742021
	-2.384863
	-2.224122
	1.022917
	2.863581
	0.740410
	-2.385829
	-2.223156
	1.023562
	2.862937
	0.739766
	-2.382286
	-2.221868
	1.021951
	2.859393
	0.741376
	-2.382930
	-2.221868
	1.020018
	2.859071
	0.744598
	-2.383252
	-2.223800
	1.017763
	2.861004
	0.744275
	-2.383897
	-2.225733
	1.018408
	2.863581
	0.742343
	-2.387118
	-2.223800
	1.020985
	2.863903
	0.739444
	-2.385185
	-2.222190
	1.021629
	2.861004
	0.739444
	-2.381642
	-2.223156
	1.021629
	2.860360
	0.740732
	-2.381320
	-2.224767
	1.018408
	2.859393
	0.742665
	-2.382608
	-2.224122
	1.017763
	2.860037
	0.745242
	-2.382608
	-2.224445
	1.019696
	2.863581
	0.744598
	-2.387118
	-2.225733
	1.020985
	2.862937
	0.739444
	-2.385185
	-2.222512
	1.020018
	2.861326
	0.738799
	-2.382286
	-2.222512
	1.020662
	2.860360
	0.741376
	-2.381320
	-2.222834
	1.019696
	2.860682
	0.743953
	-2.383252
	-2.227022
	1.020340
	2.862937
	0.743953
	-2.387118
	-2.222834
	1.022273
	2.861970
	0.740088
	-2.383252
	-2.221545
	1.020340
	2.860037
	0.740732
	-2.381964
	-2.222190
	1.017119
	2.861648
	0.744275
	-2.381320
	-2.225733
	1.018085
	2.863259
	0.743953
	-2.383575
	-2.229276
	1.019696
	2.864869
	0.742987
	-2.384541
	-2.227344
	1.021307
	2.862614
	0.740732
	-2.385829
	-2.220579
	1.021629
	2.861648
	0.741698
	-2.383897
	-2.222834
	1.019052
	2.859071
	0.743953
	-2.382608
	-2.224767
	1.016153
	2.861970
	0.744598
	-2.382286
	-2.226699
	1.020018
	2.864225
	0.742987
	-2.385185
	-2.223478
	1.021307
	2.864225
	0.739444
	-2.383575
	-2.223478
	1.020985
	2.861004
	0.740410
	-2.381642
	-2.225733
	1.018085
	2.859071
	0.743631
	-2.380353
	-2.225411
	1.019374
	2.861648
	0.744598
	-2.382286
	-2.226377
	1.018730
	2.863259
	0.746530
	-2.383897
	-2.226699
	1.019374
	2.863581
	0.742987
	-2.388084
	-2.225411
	1.020018
	2.863903
	0.741054
	-2.384863
	-2.222512
	1.020018
	2.862292
	0.738799
	-2.381964
	-2.223800
	1.020662
	2.860682
	0.743309
	-2.381642
	-2.224122
	1.017441
	2.861004
	0.746853
	-2.383575
	-2.227022
	1.019696
	2.863259
	0.745242
	-2.385185
	-2.225733
	1.021307
	2.865514
	0.742665
	-2.384541
	-2.225089
	1.021307
	2.865192
	0.741054
	-2.383575
	-2.222834
	1.021951
	2.862937
	0.742021
	-2.382608
	-2.224122
	1.020662
	2.860037
	0.743309
	-2.382608
	-2.222834
	1.017763
	2.861648
	0.745564
	-2.381320
	-2.225089
	1.017119
	2.865836
	0.746208
	-2.382608
	-2.226699
	1.020340
	2.864547
	0.742021
	-2.386152
	-2.225411
	1.021951
	2.862292
	0.742987
	-2.381320
	-2.223478
	1.020985
	2.859071
	0.742021
	-2.381964
	-2.223156
	1.018408
	2.859715
	0.743309
	-2.381642
	-2.224767
	1.015508
	2.862614
	0.745242
	-2.380353
	-2.227022
	1.018085
	2.863259
	0.744920
	-2.384863
	-2.227666
	1.021629
	2.863581
	0.744275
	-2.383575
	-2.223478
	1.021307
	2.862614
	0.741698
	-2.382930
	-2.222512
	1.020018
	2.861004
	0.746208
	-2.381320
	-2.224122
	1.016153
	2.864547
	0.745886
	-2.383252
	-2.227666
	1.021307
	2.864547
	0.742665
	-2.382608
	-2.223478
	1.022273
	2.861326
	0.740410
	-2.381320
	-2.224122
	1.019374
	2.859393
	0.745886
	-2.381642
	-2.222834
	1.016153
	2.861004
	0.746853
	-2.381320
	-2.224445
	1.018085
	2.864547
	0.745564
	-2.383252
	-2.225733
	1.021951
	2.866480
	0.742665
	-2.383575
	-2.224122
	1.020340
	2.862292
	0.742021
	-2.380998
	-2.223800
	1.018408
	2.859715
	0.747497
	-2.382286
	-2.225089
	1.016153
	2.863259
	0.746530
	-2.382286
	-2.227022
	1.020662
	2.866802
	0.742665
	-2.383575
	-2.225089
	1.021307
	2.862292
	0.743309
	-2.380675
	-2.223478
	1.018730
	2.860682
	0.748141
	-2.380998
	-2.224767
	1.015831
	2.863259
	0.745886
	-2.381320
	-2.227022
	1.020018
	2.865192
	0.745886
	-2.382930
	-2.226377
	1.022273
	2.864547
	0.743309
	-2.384863
	-2.223800
	1.019052
	2.862292
	0.743631
	-2.381320
	-2.221868
	1.018085
	2.859071
	0.744275
	-2.379709
	-2.224122
	1.017441
	2.865514
	0.746208
	-2.381964
	-2.228632
	1.021307
	2.864547
	0.742343
	-2.384219
	-2.225089
	1.020018
	2.860037
	0.742665
	-2.381964
	-2.224122
	1.018408
	2.859071
	0.746853
	-2.380998
	-2.225089
	1.015831
	2.863903
	0.746853
	-2.381964
	-2.227344
	1.019374
	2.866480
	0.744920
	-2.384219
	-2.225733
	1.018730
	2.863581
	0.741054
	-2.380675
	-2.223156
	1.020018
	2.859715
	0.745564
	-2.380353
	-2.224767
	1.017441
	2.862614
	0.748463
	-2.380998
	-2.228954
	1.017441
	2.865836
	0.745242
	-2.384863
	-2.226055
	1.019052
	2.864225
	0.741698
	-2.382286
	-2.223478
	1.020340
	2.861326
	0.744275
	-2.379387
	-2.224767
	1.017763
	2.863259
	0.747819
	-2.380353
	-2.228310
	1.018085
	2.865514
	0.746530
	-2.384863
	-2.228632
	1.017763
	2.863903
	0.742665
	-2.384219
	-2.222834
	1.018085
	2.862292
	0.742665
	-2.380675
	-2.223800
	1.019052
	2.860682
	0.746530
	-2.379387
	-2.227344
	1.015508
	2.861648
	0.747497
	-2.381642
	-2.229276
	1.017441
	2.863581
	0.746853
	-2.384541
	-2.225733
	1.020018
	2.863903
	0.745242
	-2.384863
	-2.223156
	1.019374
	2.861326
	0.743309
	-2.380998
	-2.224122
	1.016153
	2.860360
	0.746853
	-2.379709
	-2.227022
	1.015508
	2.866480
	0.745886
	-2.382608
	-2.228310
	1.018408
	2.864225
	0.746853
	-2.383252
	-2.225733
	1.020985
	2.863259
	0.744598
	-2.383897
	-2.224767
	1.020018
	2.860682
	0.744920
	-2.381642
	-2.224767
	1.017763
	2.860037
	0.745564
	-2.380031
	-2.223478
	1.014220
	2.863259
	0.746530
	-2.378421
	-2.225733
	1.016475
	2.864869
	0.748141
	-2.382286
	-2.229276
	1.018085
	2.864869
	0.748141
	-2.384219
	-2.227022
	1.020018
	2.865514
	0.744275
	-2.383252
	-2.224445
	1.018408
	2.862937
	0.741698
	-2.381320
	-2.223800
	1.018730
	2.860682
	0.745242
	-2.380675
	-2.226055
	1.016153
	2.861004
	0.747497
	-2.380353
	-2.228632
	1.016153
	2.863581
	0.749107
	-2.381320
	-2.227988
	1.017763
	2.864547
	0.745564
	-2.382930
	-2.224767
	1.018730
	2.865514
	0.744275
	-2.381642
	-2.224122
	1.019374
	2.860682
	0.745242
	-2.380353
	-2.227344
	1.015508
	2.861648
	0.748463
	-2.380353
	-2.227022
	1.017119
	2.864547
	0.747819
	-2.384219
	-2.227022
	1.018408
	2.865192
	0.746530
	-2.383897
	-2.225411
	1.016797
	2.861326
	0.741698
	-2.380998
	-2.226055
	1.017441
	2.859715
	0.745564
	-2.379065
	-2.226699
	1.015508
	2.859715
	0.746208
	-2.380031
	-2.227022
	1.015831
	2.862937
	0.748141
	-2.383897
	-2.228954
	1.018408
	2.864547
	0.746853
	-2.385829
	-2.227344
	1.017763
	2.863903
	0.742021
	-2.381642
	-2.225411
	1.018730
	2.862614
	0.744275
	-2.379065
	-2.225411
	1.018085
	2.858427
	0.745564
	-2.380031
	-2.225411
	1.014864
	2.860682
	0.748463
	-2.382286
	-2.228954
	1.011965
	2.863903
	0.747175
	-2.380353
	-2.229599
	1.018085
	2.865514
	0.746530
	-2.383252
	-2.229599
	1.018408
	2.863259
	0.744598
	-2.383575
	-2.225411
	1.017119
	2.861970
	0.744920
	-2.380675
	-2.225411
	1.014542
	2.859715
	0.745242
	-2.379709
	-2.228310
	1.013898
	2.864225
	0.747497
	-2.380353
	-2.229921
	1.017119
	2.865192
	0.746530
	-2.383252
	-2.227344
	1.017763
	2.861326
	0.744275
	-2.382608
	-2.225733
	1.018408
	2.859071
	0.747497
	-2.380031
	-2.225733
	1.014220
	2.860682
	0.748463
	-2.380031
	-2.227022
	1.014864
	2.865514
	0.747175
	-2.381964
	-2.229599
	1.016153
	2.864869
	0.748141
	-2.382286
	-2.227666
	1.017763
	2.862292
	0.746208
	-2.385185
	-2.225089
	1.018408
	2.862292
	0.745242
	-2.381320
	-2.224122
	1.017119
	2.860682
	0.743953
	-2.380031
	-2.225733
	1.014864
	2.860682
	0.745564
	-2.378743
	-2.227988
	1.013576
	2.862292
	0.750396
	-2.380675
	-2.229921
	1.015508
	2.862937
	0.749430
	-2.382930
	-2.227344
	1.019052
	2.865514
	0.748141
	-2.383252
	-2.226377
	1.016153
	2.864225
	0.743631
	-2.381320
	-2.226055
	1.016797
	2.861648
	0.745886
	-2.378421
	-2.226699
	1.015186
	2.860037
	0.748785
	-2.378421
	-2.227666
	1.014864
	2.862937
	0.749430
	-2.379709
	-2.229599
	1.015508
	2.864547
	0.749107
	-2.383252
	-2.227344
	1.017763
	2.865514
	0.746208
	-2.382608
	-2.224767
	1.016797
	2.860682
	0.744598
	-2.378743
	-2.225733
	1.014220
	2.861326
	0.749107
	-2.378421
	-2.229276
	1.014542
	2.864547
	0.747819
	-2.382286
	-2.230243
	1.017119
	2.863581
	0.745886
	-2.382608
	-2.225733
	1.018408
	2.860360
	0.746208
	-2.379709
	-2.226055
	1.015508
	2.860360
	0.751040
	-2.379387
	-2.229599
	1.015508
	2.865192
	0.748141
	-2.384541
	-2.225733
	1.015186
	2.863259
	0.745242
	-2.379065
	-2.225733
	1.014220
	2.860682
	0.746853
	-2.378743
	-2.227344
	1.015508
	2.863581
	0.749107
	-2.379065
	-2.230887
	1.015831
	2.864547
	0.748463
	-2.383897
	-2.229599
	1.017763
	2.863259
	0.746853
	-2.383252
	-2.226055
	1.017119
	2.861326
	0.748463
	-2.378743
	-2.225411
	1.014220
	2.861004
	0.749430
	-2.379709
	-2.229599
	1.012287
	2.866802
	0.748141
	-2.383575
	-2.230887
	1.015186
	2.863903
	0.745886
	-2.381320
	-2.227022
	1.018085
	2.861970
	0.745564
	-2.378421
	-2.227022
	1.016153
	2.859715
	0.748141
	-2.378743
	-2.226055
	1.012609
	2.862614
	0.750396
	-2.379387
	-2.227666
	1.013253
	2.865514
	0.749430
	-2.381964
	-2.228954
	1.015186
	2.863903
	0.747497
	-2.380998
	-2.226055
	1.018085
	2.862292
	0.745564
	-2.377776
	-2.227988
	1.016153
	2.860037
	0.750074
	-2.379065
	-2.228310
	1.012609
	2.861326
	0.750074
	-2.382286
	-2.229921
	1.015186
	2.864225
	0.751040
	-2.382286
	-2.226377
	1.017119
	2.864547
	0.745242
	-2.381964
	-2.225733
	1.015508
	2.861970
	0.747497
	-2.377776
	-2.224767
	1.014864
	2.861648
	0.749107
	-2.378098
	-2.227666
	1.012287
	2.861970
	0.751362
	-2.378098
	-2.231531
	1.016153
	2.864869
	0.749752
	-2.382608
	-2.229276
	1.016475
	2.863903
	0.747497
	-2.383252
	-2.226699
	1.014864
	2.861004
	0.748785
	-2.378421
	-2.225733
	1.012931
	2.861004
	0.749752
	-2.377454
	-2.228310
	1.010999
	2.866158
	0.749107
	-2.379709
	-2.231209
	1.014542
	2.865836
	0.749107
	-2.381964
	-2.228310
	1.016797
	2.864225
	0.747497
	-2.379709
	-2.227666
	1.017119
	2.860037
	0.748141
	-2.377776
	-2.227022
	1.014220
	2.861648
	0.752007
	-2.379709
	-2.228954
	1.013253
	2.865192
	0.750718
	-2.382286
	-2.229921
	1.014542
	2.863581
	0.746208
	-2.380031
	-2.226699
	1.015508
	2.861326
	0.746208
	-2.378421
	-2.227344
	1.012609
	2.861970
	0.750718
	-2.378421
	-2.229276
	1.014220
	2.863259
	0.750396
	-2.383897
	-2.230243
	1.016153
	2.863259
	0.748463
	-2.381642
	-2.226055
	1.015831
	2.862292
	0.747819
	-2.378743
	-2.225411
	1.011965
	2.861326
	0.750074
	-2.379387
	-2.229599
	1.011965
	2.865192
	0.748785
	-2.383897
	-2.231853
	1.016153
	2.862937
	0.747497
	-2.380031
	-2.226699
	1.016153
	2.859715
	0.748463
	-2.379709
	-2.226377
	1.010999
	2.862937
	0.752329
	-2.379387
	-2.229599
	1.013898
	2.865836
	0.750074
	-2.382286
	-2.229599
	1.017119
	2.864547
	0.746208
	-2.378098
	-2.228632
	1.014542
	2.859393
	0.750074
	-2.378098
	-2.228954
	1.011321
	2.861970
	0.752007
	-2.380353
	-2.230887
	1.016797
	2.864547
	0.750074
	-2.382608
	-2.227344
	1.015508
	2.862614
	0.747175
	-2.379709
	-2.226377
	1.012609
	2.862292
	0.751362
	-2.377454
	-2.227344
	1.010676
	2.865514
	0.751362
	-2.379709
	-2.230565
	1.016153
	2.865192
	0.747819
	-2.381320
	-2.228954
	1.014864
	2.861326
	0.747175
	-2.377776
	-2.227344
	1.012287
	2.860360
	0.751684
	-2.378421
	-2.229599
	1.012287
	2.864547
	0.752651
	-2.382930
	-2.229599
	1.014864
	2.863903
	0.749107
	-2.380998
	-2.227022
	1.014220
	2.862292
	0.745886
	-2.378743
	-2.227666
	1.012287
	2.861326
	0.749752
	-2.375844
	-2.227988
	1.012609
	2.863581
	0.751040
	-2.379065
	-2.233142
	1.014542
	2.863903
	0.750718
	-2.382608
	-2.228954
	1.015831
	2.863259
	0.748463
	-2.381320
	-2.226377
	1.013898
	2.861326
	0.748141
	-2.377776
	-2.227022
	1.011643
	2.861648
	0.751684
	-2.378743
	-2.230887
	1.010354
	2.865514
	0.749430
	-2.381964
	-2.231209
	1.015186
	2.863903
	0.746530
	-2.381320
	-2.228954
	1.014220
	2.860360
	0.748463
	-2.378421
	-2.227022
	1.013253
	2.860360
	0.753295
	-2.379387
	-2.230243
	1.010676
	2.864225
	0.751684
	-2.380675
	-2.231209
	1.013253
	2.865836
	0.749107
	-2.381642
	-2.227022
	1.013898
	2.864225
	0.747819
	-2.377776
	-2.228632
	1.012609
	2.860360
	0.750074
	-2.376488
	-2.230243
	1.010032
	2.863903
	0.750718
	-2.378743
	-2.233464
	1.013253
	2.864869
	0.752007
	-2.380998
	-2.228632
	1.016153
	2.863259
	0.750074
	-2.380353
	-2.227022
	1.014864
	2.861004
	0.749752
	-2.377776
	-2.227666
	1.013253
	2.861004
	0.751362
	-2.377776
	-2.228310
	1.009388
	2.862937
	0.752007
	-2.378421
	-2.231209
	1.010999
	2.864547
	0.750074
	-2.380031
	-2.231853
	1.013576
	2.865192
	0.750074
	-2.380675
	-2.230887
	1.015186
	2.863903
	0.748141
	-2.381964
	-2.228310
	1.014220
	2.861648
	0.749752
	-2.378743
	-2.227344
	1.014220
	2.859715
	0.751362
	-2.377776
	-2.228310
	1.010354
	2.862292
	0.752973
	-2.378098
	-2.229599
	1.009710
	2.864547
	0.752651
	-2.380353
	-2.231531
	1.010354
	2.865514
	0.752007
	-2.380353
	-2.231531
	1.013576
	2.865836
	0.750718
	-2.380353
	-2.230887
	1.014542
	2.865192
	0.748141
	-2.381320
	-2.230565
	1.012931
	2.862937
	0.748141
	-2.380353
	-2.229599
	1.014542
	2.861326
	0.749752
	-2.377454
	-2.228954
	1.011643
	2.859071
	0.752973
	-2.376488
	-2.228632
	1.009388
	2.863259
	0.751684
	-2.379387
	-2.232176
	1.009066
	2.865514
	0.752651
	-2.379709
	-2.231853
	1.012287
	2.864869
	0.750074
	-2.380031
	-2.231531
	1.015186
	2.863259
	0.747819
	-2.377454
	-2.228632
	1.014220
	2.861004
	0.748141
	-2.378421
	-2.229276
	1.010999
	2.858427
	0.750074
	-2.379387
	-2.229276
	1.010999
	2.858749
	0.753295
	-2.378743
	-2.231853
	1.009710
	2.863581
	0.753295
	-2.379709
	-2.231209
	1.011965
	2.865836
	0.750718
	-2.382930
	-2.229599
	1.011643
	2.862937
	0.747497
	-2.381320
	-2.228632
	1.013253
	2.861970
	0.747497
	-2.377776
	-2.230243
	1.010676
	2.860682
	0.751040
	-2.376488
	-2.229599
	1.009388
	2.861648
	0.751040
	-2.377776
	-2.233142
	1.010032
	2.863259
	0.753295
	-2.380675
	-2.233142
	1.012609
	2.863903
	0.752973
	-2.381964
	-2.231853
	1.013898
	2.865192
	0.752007
	-2.381964
	-2.228954
	1.012931
	2.865514
	0.750396
	-2.380998
	-2.228632
	1.012931
	2.863581
	0.748463
	-2.378743
	-2.229921
	1.013576
	2.862292
	0.749430
	-2.375199
	-2.229599
	1.011321
	2.860037
	0.752651
	-2.376166
	-2.229921
	1.010032
	2.862614
	0.754906
	-2.377132
	-2.232820
	1.009710
	2.863259
	0.753939
	-2.380675
	-2.233464
	1.012931
	2.864225
	0.752329
	-2.380998
	-2.228632
	1.011643
	2.863581
	0.749752
	-2.376488
	-2.227344
	1.011643
	2.861004
	0.749107
	-2.376488
	-2.230565
	1.009710
	2.861004
	0.754261
	-2.376810
	-2.232820
	1.009710
	2.862614
	0.753939
	-2.377776
	-2.231853
	1.011965
	2.865192
	0.754906
	-2.379387
	-2.232498
	1.010676
	2.864225
	0.754584
	-2.380998
	-2.229276
	1.014864
	2.866802
	0.752329
	-2.381320
	-2.232176
	1.013253
	2.865192
	0.751040
	-2.378743
	-2.229921
	1.013576
	2.863581
	0.751362
	-2.378098
	-2.228310
	1.012931
	2.861648
	0.752973
	-2.376488
	-2.227666
	1.011321
	2.861970
	0.752651
	-2.376488
	-2.231853
	1.007777
	2.864869
	0.753939
	-2.376166
	-2.233464
	1.011321
	2.864225
	0.752973
	-2.379387
	-2.230243
	1.014542
	2.863903
	0.752651
	-2.380353
	-2.227988
	1.013576
	2.863259
	0.750718
	-2.376810
	-2.229599
	1.009710
	2.861970
	0.752329
	-2.374555
	-2.230243
	1.008422
	2.863581
	0.756194
	-2.374877
	-2.232176
	1.012931
	2.864225
	0.755228
	-2.380353
	-2.229276
	1.013576
	2.862937
	0.750074
	-2.379709
	-2.228954
	1.010676
	2.861648
	0.749752
	-2.375844
	-2.229599
	1.008744
	2.861648
	0.754584
	-2.376166
	-2.231531
	1.010354
	2.863903
	0.754906
	-2.378098
	-2.234753
	1.011643
	2.865192
	0.755228
	-2.379065
	-2.233142
	1.011965
	2.864869
	0.754261
	-2.381642
	-2.231531
	1.010999
	2.863581
	0.752007
	-2.380998
	-2.228310
	1.013253
	2.863581
	0.749752
	-2.377454
	-2.229599
	1.011321
	2.862614
	0.749752
	-2.376488
	-2.229599
	1.010032
	2.861648
	0.752329
	-2.377132
	-2.231853
	1.006489
	2.862292
	0.753939
	-2.376488
	-2.233464
	1.009710
	2.864547
	0.754261
	-2.378098
	-2.235397
	1.011965
	2.864547
	0.752973
	-2.380998
	-2.233142
	1.012931
	2.862614
	0.752329
	-2.380353
	-2.229276
	1.010999
	2.861648
	0.751040
	-2.378098
	-2.229921
	1.009066
	2.860037
	0.754261
	-2.375844
	-2.230565
	1.006811
	2.863581
	0.752651
	-2.378098
	-2.234753
	1.009066
	2.865514
	0.755872
	-2.378743
	-2.234753
	1.010999
	2.863259
	0.753939
	-2.380031
	-2.231531
	1.013576
	2.863903
	0.752329
	-2.377776
	-2.230887
	1.010676
	2.859715
	0.750396
	-2.377776
	-2.229276
	1.007777
	2.859715
	0.755550
	-2.377454
	-2.229599
	1.007133
	2.863903
	0.755228
	-2.378421
	-2.233786
	1.010354
	2.865836
	0.752329
	-2.379065
	-2.233142
	1.011321
	2.862614
	0.749430
	-2.377454
	-2.230887
	1.011643
	2.860360
	0.751684
	-2.376488
	-2.230887
	1.009066
	2.860360
	0.755872
	-2.376810
	-2.232176
	1.006489
	2.861648
	0.755228
	-2.379065
	-2.233786
	1.008422
	2.865192
	0.753617
	-2.382286
	-2.233464
	1.009388
	2.864225
	0.752329
	-2.380353
	-2.231209
	1.011965
	2.863903
	0.751684
	-2.377132
	-2.230887
	1.010676
	2.860037
	0.753295
	-2.376166
	-2.230887
	1.009066
	2.860037
	0.754584
	-2.378098
	-2.232176
	1.006489
	2.861648
	0.756516
	-2.377132
	-2.230887
	1.005844
	2.864869
	0.756194
	-2.376488
	-2.233786
	1.008744
	2.865514
	0.753939
	-2.379065
	-2.233786
	1.010999
	2.865514
	0.751684
	-2.379709
	-2.231209
	1.010676
	2.861970
	0.752651
	-2.376166
	-2.232176
	1.008744
	2.859715
	0.757483
	-2.374555
	-2.230887
	1.007777
	2.863259
	0.756516
	-2.377776
	-2.234430
	1.007777
	2.864869
	0.754906
	-2.378421
	-2.233142
	1.008099
	2.865192
	0.753939
	-2.380353
	-2.234430
	1.009388
	2.864869
	0.752973
	-2.378421
	-2.231209
	1.011965
	2.864869
	0.750718
	-2.378421
	-2.231209
	1.010999
	2.862292
	0.750718
	-2.376810
	-2.231209
	1.009388
	2.859393
	0.752973
	-2.377454
	-2.232176
	1.008099
	2.861326
	0.757483
	-2.377132
	-2.232176
	1.007455
	2.865514
	0.755228
	-2.379709
	-2.232820
	1.010032
	2.865836
	0.753617
	-2.379387
	-2.231853
	1.011643
	2.864869
	0.753295
	-2.377776
	-2.231853
	1.011321
	2.862937
	0.751684
	-2.374555
	-2.230565
	1.010999
	2.861326
	0.756516
	-2.376166
	-2.230887
	1.006811
	2.860682
	0.756839
	-2.377776
	-2.233786
	1.006167
	2.865192
	0.757483
	-2.378743
	-2.234108
	1.008422
	2.864547
	0.754584
	-2.379387
	-2.231853
	1.010032
	2.865836
	0.752007
	-2.378098
	-2.231853
	1.009710
	2.863259
	0.752007
	-2.376166
	-2.230887
	1.010032
	2.859393
	0.755550
	-2.374555
	-2.231853
	1.007133
	2.860037
	0.757805
	-2.375199
	-2.231853
	1.006167
	2.862937
	0.757805
	-2.375844
	-2.232820
	1.006167
	2.865192
	0.756516
	-2.378421
	-2.233464
	1.007777
	2.865514
	0.755872
	-2.377454
	-2.235397
	1.009388
	2.864547
	0.751684
	-2.379387
	-2.232498
	1.009388
	2.863581
	0.751040
	-2.375521
	-2.231531
	1.009066
	2.858749
	0.753939
	-2.376488
	-2.232820
	1.007455
	2.860682
	0.757805
	-2.376166
	-2.234430
	1.005844
	2.865514
	0.756839
	-2.378098
	-2.232820
	1.009710
	2.865514
	0.752651
	-2.378743
	-2.231209
	1.010999
	2.862614
	0.751684
	-2.376488
	-2.232176
	1.009710
	2.859393
	0.754906
	-2.376166
	-2.232498
	1.006811
	2.862614
	0.757805
	-2.376166
	-2.234108
	1.006489
	2.865192
	0.756194
	-2.380031
	-2.234430
	1.009066
	2.864547
	0.752973
	-2.380031
	-2.232498
	1.009066
	2.864869
	0.751362
	-2.376166
	-2.231531
	1.009066
	2.862614
	0.755228
	-2.374555
	-2.232498
	1.007133
	2.860682
	0.757483
	-2.375844
	-2.235075
	1.005844
	2.863259
	0.757161
	-2.377776
	-2.235719
	1.008744
	2.864225
	0.755228
	-2.380675
	-2.231209
	1.008099
	2.863581
	0.753295
	-2.376166
	-2.231209
	1.008744
	2.861970
	0.751684
	-2.374877
	-2.233464
	1.008099
	2.860682
	0.754261
	-2.373589
	-2.231531
	1.006167
	2.861970
	0.756516
	-2.376810
	-2.235397
	1.005844
	2.863259
	0.758127
	-2.376166
	-2.235397
	1.008422
	2.864547
	0.757161
	-2.379065
	-2.234108
	1.009066
	2.865192
	0.753617
	-2.380031
	-2.231531
	1.008099
	2.864225
	0.752329
	-2.377454
	-2.232498
	1.008744
	2.861004
	0.753939
	-2.374233
	-2.232176
	1.007133
	2.861970
	0.758127
	-2.375521
	-2.233786
	1.004556
	2.863259
	0.757483
	-2.378098
	-2.235719
	1.005844
	2.864869
	0.757483
	-2.379065
	-2.234108
	1.009066
	2.863903
	0.753295
	-2.377132
	-2.231531
	1.008744
	2.863259
	0.752973
	-2.375521
	-2.232176
	1.005844
	2.859715
	0.755872
	-2.374555
	-2.233786
	1.006167
	2.862292
	0.757805
	-2.376488
	-2.236363
	1.008744
	2.864869
	0.757483
	-2.378421
	-2.232820
	1.008744
	2.863903
	0.753939
	-2.376488
	-2.230243
	1.007777
	2.861326
	0.755872
	-2.375844
	-2.233786
	1.004234
	2.862937
	0.756516
	-2.374555
	-2.237007
	1.007133
	2.865514
	0.757483
	-2.377454
	-2.234108
	1.010354
	2.863903
	0.755228
	-2.377454
	-2.230887
	1.008099
	2.858749
	0.755228
	-2.375844
	-2.233142
	1.004234
	2.862292
	0.758127
	-2.374233
	-2.234430
	1.006167
	2.866158
	0.757161
	-2.376810
	-2.233464
	1.009066
	2.863903
	0.752973
	-2.375844
	-2.232498
	1.010032
	2.859393
	0.755550
	-2.375521
	-2.233142
	1.005200
	2.863259
	0.760060
	-2.375199
	-2.232820
	1.004556
	2.865514
	0.758449
	-2.376166
	-2.234753
	1.008744
	2.864869
	0.753295
	-2.379065
	-2.232498
	1.008422
	2.863903
	0.753295
	-2.374877
	-2.232498
	1.007777
	2.859715
	0.756839
	-2.374877
	-2.233786
	1.004878
	2.862937
	0.760704
	-2.375844
	-2.235075
	1.005200
	2.865192
	0.758449
	-2.377454
	-2.234108
	1.008099
	2.865514
	0.755228
	-2.379387
	-2.231531
	1.006167
	2.864869
	0.753295
	-2.376488
	-2.232498
	1.008099
	2.861648
	0.756516
	-2.373267
	-2.232176
	1.006167
	2.861648
	0.758771
	-2.374555
	-2.233786
	1.003590
	2.863259
	0.759416
	-2.377132
	-2.236041
	1.007455
	2.863903
	0.756839
	-2.378743
	-2.233142
	1.007455
	2.862937
	0.754261
	-2.373267
	-2.231531
	1.007455
	2.863903
	0.756516
	-2.373267
	-2.233142
	1.003912
	2.862292
	0.758127
	-2.373911
	-2.235719
	1.006811
	2.864225
	0.758449
	-2.376488
	-2.237007
	1.010032
	2.864547
	0.757805
	-2.377776
	-2.231209
	1.008422
	2.863259
	0.754906
	-2.376166
	-2.231531
	1.006489
	2.860682
	0.757805
	-2.373911
	-2.234430
	1.005200
	2.865514
	0.758771
	-2.375844
	-2.237652
	1.007455
	2.864869
	0.756194
	-2.376488
	-2.231209
	1.008422
	2.862292
	0.756516
	-2.375199
	-2.232498
	1.005522
	2.861326
	0.759416
	-2.374555
	-2.235397
	1.003267
	2.865836
	0.758771
	-2.377454
	-2.236041
	1.007777
	2.865514
	0.755872
	-2.376166
	-2.232176
	1.009066
	2.862614
	0.757483
	-2.372622
	-2.233142
	1.005522
	2.860360
	0.758127
	-2.374233
	-2.235719
	1.004556
	2.865514
	0.760704
	-2.376810
	-2.234430
	1.006167
	2.866158
	0.756516
	-2.377132
	-2.232176
	1.007455
	2.863903
	0.755228
	-2.372944
	-2.234430
	1.006489
	2.859715
	0.756839
	-2.373267
	-2.234430
	1.003912
	2.863581
	0.760382
	-2.374555
	-2.237330
	1.005200
	2.864869
	0.760060
	-2.378743
	-2.233786
	1.007777
	2.863581
	0.754584
	-2.375521
	-2.232176
	1.005844
	2.860682
	0.755550
	-2.374233
	-2.232820
	1.003590
	2.862937
	0.760382
	-2.371978
	-2.235397
	1.005522
	2.864869
	0.760704
	-2.376488
	-2.237007
	1.006811
	2.864547
	0.758449
	-2.378743
	-2.233464
	1.007777
	2.863581
	0.755228
	-2.376810
	-2.232498
	1.007133
	2.861970
	0.754584
	-2.372944
	-2.232820
	1.007133
	2.861970
	0.759738
	-2.373267
	-2.234753
	1.004556
	2.863581
	0.760060
	-2.375199
	-2.236041
	1.004556
	2.865192
	0.760382
	-2.378743
	-2.236041
	1.005522
	2.865192
	0.756839
	-2.377132
	-2.233142
	1.007777
	2.867124
	0.755228
	-2.373911
	-2.233786
	1.004556
	2.861326
	0.757805
	-2.372944
	-2.233786
	1.006167
	2.859393
	0.758771
	-2.374877
	-2.234108
	1.003267
	2.862292
	0.761348
	-2.374555
	-2.237330
	1.003590
	2.865836
	0.761026
	-2.375199
	-2.236041
	1.005200
	2.865836
	0.759738
	-2.378098
	-2.235075
	1.006811
	2.864225
	0.756194
	-2.376810
	-2.234430
	1.005200
	2.863903
	0.752973
	-2.375199
	-2.234108
	1.007133
	2.862937
	0.757483
	-2.374233
	-2.233142
	1.007455
	2.861004
	0.756194
	-2.375521
	-2.233142
	1.007133
	2.859715
	0.756194
	-2.373911
	-2.234430
	1.003267
	2.861326
	0.757161
	-2.373267
	-2.233464
	1.002945
	2.861970
	0.758771
	-2.373267
	-2.234430
	1.002623
	2.861326
	0.758771
	-2.372944
	-2.235075
	1.003912
	2.862292
	0.760382
	-2.373589
	-2.235397
	1.002301
	2.862614
	0.760704
	-2.375521
	-2.236685
	1.000690
	2.862937
	0.760704
	-2.373911
	-2.235075
	1.002623
	2.865514
	0.759738
	-2.376166
	-2.238618
	1.003912
	2.865514
	0.757805
	-2.376810
	-2.236041
	1.006489
	2.866158
	0.758771
	-2.377454
	-2.236685
	1.007455
	2.863581
	0.757483
	-2.374555
	-2.233786
	1.006489
	2.861970
	0.755872
	-2.375199
	-2.234430
	1.004556
	2.860682
	0.757805
	-2.374877
	-2.232820
	1.002623
	2.861004
	0.760060
	-2.371978
	-2.235397
	1.001335
	2.862937
	0.759738
	-2.371978
	-2.238296
	1.001335
	2.863903
	0.760382
	-2.373267
	-2.236685
	1.003267
	2.862614
	0.760704
	-2.377132
	-2.238940
	1.002945
	2.863259
	0.760382
	-2.376810
	-2.238296
	1.005200
	2.865192
	0.758127
	-2.376488
	-2.233786
	1.005844
	2.864547
	0.755872
	-2.372944
	-2.233786
	1.006167
	2.861970
	0.756516
	-2.372622
	-2.235075
	1.006167
	2.860037
	0.758771
	-2.373267
	-2.235075
	1.002623
	2.861648
	0.761348
	-2.373589
	-2.235397
	1.001335
	2.863581
	0.760382
	-2.375199
	-2.237652
	1.003267
	2.865514
	0.759416
	-2.376166
	-2.237974
	1.005200
	2.866480
	0.757805
	-2.376166
	-2.236041
	1.006811
	2.863581
	0.757805
	-2.375844
	-2.234108
	1.006489
	2.861326
	0.757805
	-2.373589
	-2.234108
	1.004878
	2.860682
	0.760060
	-2.373911
	-2.233786
	1.000690
	2.861648
	0.760704
	-2.373911
	-2.235075
	1.000690
	2.863903
	0.761026
	-2.374555
	-2.238940
	1.003267
	2.864869
	0.759416
	-2.375521
	-2.239584
	1.003590
	2.865192
	0.759416
	-2.376488
	-2.236363
	1.006489
	2.863581
	0.758771
	-2.377454
	-2.235719
	1.006489
	2.863259
	0.759416
	-2.372944
	-2.233464
	1.002945
	2.860037
	0.759416
	-2.373267
	-2.234753
	1.000046
	2.862614
	0.761026
	-2.373911
	-2.237007
	1.001335
	2.864869
	0.760704
	-2.374877
	-2.239584
	1.004878
	2.865836
	0.759416
	-2.375521
	-2.236685
	1.005844
	2.863581
	0.757483
	-2.376166
	-2.234430
	1.005844
	2.860682
	0.757805
	-2.374233
	-2.234108
	1.003590
	2.859071
	0.760704
	-2.373267
	-2.236041
	1.000690
	2.861970
	0.761670
	-2.372622
	-2.236363
	1.001657
	2.866802
	0.762315
	-2.375521
	-2.237974
	1.003590
	2.865836
	0.760060
	-2.376810
	-2.236363
	1.004556
	2.865514
	0.757161
	-2.374877
	-2.235719
	1.003912
	2.864225
	0.758127
	-2.371334
	-2.235719
	1.001657
	2.860682
	0.760060
	-2.373589
	-2.237974
	1.000690
	2.862292
	0.761348
	-2.374877
	-2.239584
	1.003912
	2.864869
	0.761670
	-2.376810
	-2.236363
	1.004234
	2.864225
	0.759093
	-2.377132
	-2.234430
	1.004878
	2.862614
	0.757161
	-2.372300
	-2.234430
	1.002301
	2.860682
	0.758771
	-2.372300
	-2.236041
	1.000368
	2.861970
	0.761026
	-2.372944
	-2.237330
	1.000690
	2.863581
	0.761993
	-2.372944
	-2.238940
	1.004234
	2.863903
	0.761670
	-2.375844
	-2.238618
	1.003267
	2.863259
	0.759093
	-2.377132
	-2.234430
	1.004234
	2.864225
	0.758771
	-2.374555
	-2.234108
	1.004556
	2.862614
	0.760060
	-2.371334
	-2.235075
	1.003267
	2.861970
	0.760704
	-2.371012
	-2.237007
	1.000690
	2.862937
	0.760704
	-2.373267
	-2.240229
	1.001657
	2.863581
	0.761670
	-2.376488
	-2.239584
	1.005200
	2.864547
	0.760382
	-2.377454
	-2.236363
	1.004878
	2.863581
	0.758771
	-2.375521
	-2.233464
	1.003267
	2.861648
	0.758127
	-2.374233
	-2.235397
	1.000690
	2.861326
	0.760704
	-2.372944
	-2.237330
	0.999724
	2.864225
	0.762315
	-2.373267
	-2.239262
	1.001657
	2.867124
	0.762315
	-2.374877
	-2.238618
	1.003267
	2.865192
	0.758449
	-2.374877
	-2.237007
	1.004234
	2.865836
	0.757483
	-2.373267
	-2.236363
	1.004234
	2.862614
	0.760060
	-2.370367
	-2.235397
	1.003267
	2.859715
	0.760382
	-2.371012
	-2.236041
	1.002945
	2.859393
	0.761670
	-2.370689
	-2.236685
	1.001979
	2.861326
	0.762637
	-2.371978
	-2.236041
	1.000690
	2.862292
	0.764247
	-2.372622
	-2.237330
	0.999724
	2.861970
	0.763281
	-2.372300
	-2.237652
	1.000046
	2.864869
	0.762637
	-2.373267
	-2.237330
	1.001335
	2.867446
	0.761670
	-2.375521
	-2.239907
	1.002301
	2.865192
	0.760060
	-2.375199
	-2.236363
	1.003912
	2.863581
	0.758127
	-2.373267
	-2.235719
	1.004878
	2.861970
	0.759093
	-2.371656
	-2.234430
	1.003267
	2.860682
	0.761026
	-2.373267
	-2.235075
	1.001013
	2.861326
	0.762637
	-2.371656
	-2.235075
	0.999724
	2.861648
	0.760382
	-2.372944
	-2.236685
	0.998436
	2.864547
	0.761993
	-2.373267
	-2.239584
	1.001335
	2.865192
	0.762637
	-2.372622
	-2.240229
	1.003912
	2.865192
	0.760382
	-2.375199
	-2.236363
	1.004878
	2.864225
	0.760060
	-2.371978
	-2.235075
	1.002301
	2.859715
	0.762315
	-2.371334
	-2.237330
	1.000368
	2.862614
	0.763603
	-2.373267
	-2.240551
	1.001335
	2.865192
	0.763281
	-2.375844
	-2.237652
	1.003267
	2.865514
	0.761670
	-2.376488
	-2.235719
	1.001979
	2.862614
	0.758771
	-2.372300
	-2.235397
	1.003590
	2.862937
	0.760060
	-2.371978
	-2.235397
	1.001013
	2.861970
	0.761026
	-2.371978
	-2.235719
	0.999724
	2.861326
	0.763281
	-2.370367
	-2.237652
	0.999402
	2.861970
	0.763925
	-2.369723
	-2.240229
	1.000046
	2.863903
	0.762959
	-2.374555
	-2.239584
	1.002301
	2.865192
	0.764570
	-2.376488
	-2.238618
	1.002623
	2.863259
	0.760704
	-2.375844
	-2.236363
	1.002945
	2.863903
	0.758127
	-2.374555
	-2.236041
	1.001335
	2.862937
	0.759738
	-2.371656
	-2.236363
	1.002301
	2.861648
	0.761993
	-2.370689
	-2.237007
	0.999724
	2.861648
	0.763281
	-2.370367
	-2.236363
	1.000046
	2.862614
	0.764892
	-2.373267
	-2.239262
	1.000046
	2.864869
	0.764892
	-2.374233
	-2.239262
	1.001013
	2.866158
	0.764247
	-2.373589
	-2.238940
	1.001657
	2.866158
	0.761670
	-2.375199
	-2.238940
	1.001979
	2.865192
	0.759738
	-2.375844
	-2.237652
	1.002623
	2.863259
	0.760060
	-2.372944
	-2.237330
	1.003912
	2.861970
	0.760382
	-2.370689
	-2.236041
	1.001013
	2.859393
	0.762959
	-2.372622
	-2.236041
	0.999724
	2.860682
	0.764892
	-2.371334
	-2.237974
	0.997147
	2.862614
	0.763603
	-2.371012
	-2.240229
	0.999402
	2.866802
	0.764247
	-2.371978
	-2.240873
	1.002301
	2.864225
	0.762959
	-2.374877
	-2.239584
	1.003590
	2.863903
	0.761348
	-2.374233
	-2.236041
	1.001657
	2.863259
	0.760704
	-2.373267
	-2.236041
	1.001013
	2.861970
	0.762637
	-2.371334
	-2.234753
	1.001013
	2.860682
	0.763603
	-2.371012
	-2.237974
	0.997791
	2.864225
	0.763281
	-2.369723
	-2.239907
	1.001335
	2.867124
	0.763925
	-2.373911
	-2.239584
	1.002945
	2.865836
	0.762637
	-2.375521
	-2.237330
	1.004234
	2.862292
	0.760060
	-2.373589
	-2.237974
	1.001657
	2.860037
	0.762959
	-2.371334
	-2.235719
	0.998113
	2.862937
	0.767469
	-2.372622
	-2.239584
	0.998758
	2.866802
	0.766502
	-2.373267
	-2.239584
	1.001979
	2.865192
	0.760382
	-2.376166
	-2.239584
	1.000368
	2.862292
	0.758449
	-2.371978
	-2.237652
	1.000690
	2.860682
	0.763603
	-2.369723
	-2.237974
	1.000046
	2.861970
	0.765536
	-2.369401
	-2.238940
	0.998758
	2.864547
	0.764247
	-2.372944
	-2.240551
	0.998758
	2.864225
	0.765536
	-2.373911
	-2.239584
	1.001657
	2.864869
	0.765214
	-2.374555
	-2.238940
	1.002301
	2.865514
	0.761993
	-2.374555
	-2.236041
	1.001335
	2.863581
	0.761670
	-2.373589
	-2.236363
	0.999080
	2.861326
	0.761026
	-2.371012
	-2.236685
	0.998758
	2.861326
	0.763925
	-2.370367
	-2.237652
	0.997469
	2.862937
	0.764570
	-2.370367
	-2.238618
	0.997147
	2.865514
	0.764892
	-2.372622
	-2.241195
	0.999402
	2.865192
	0.763281
	-2.374233
	-2.240229
	1.001657
	2.867124
	0.761993
	-2.373267
	-2.237330
	1.002623
	2.866480
	0.760704
	-2.371334
	-2.237007
	1.001979
	2.860682
	0.761670
	-2.370367
	-2.237330
	1.000690
	2.860360
	0.763281
	-2.371012
	-2.239584
	0.998113
	2.859071
	0.762637
	-2.371656
	-2.237974
	0.999080
	2.862937
	0.766825
	-2.372300
	-2.239584
	0.997469
	2.863581
	0.766825
	-2.372944
	-2.241195
	0.998113
	2.865514
	0.763925
	-2.373911
	-2.240551
	0.999080
	2.866158
	0.762959
	-2.374233
	-2.237652
	1.001335
	2.866158
	0.761993
	-2.371656
	-2.237974
	1.001335
	2.861648
	0.760382
	-2.369723
	-2.238296
	0.998758
	2.860360
	0.761993
	-2.370045
	-2.237974
	0.998758
	2.861004
	0.765536
	-2.371334
	-2.239907
	0.997469
	2.862292
	0.766502
	-2.369401
	-2.239584
	0.998113
	2.862614
	0.766180
	-2.371334
	-2.240873
	0.996503
	2.863259
	0.765536
	-2.371978
	-2.240873
	0.996503
	2.865192
	0.764247
	-2.374555
	-2.242161
	0.998758
	2.865192
	0.764892
	-2.372300
	-2.240873
	1.000690
	2.865192
	0.761670
	-2.374233
	-2.239262
	1.000368
	2.863259
	0.760382
	-2.371012
	-2.237974
	1.001335
	2.860360
	0.761348
	-2.370045
	-2.237974
	1.000690
	2.859715
	0.764892
	-2.369401
	-2.238296
	0.999080
	2.861004
	0.765214
	-2.372622
	-2.240551
	0.996181
	2.863581
	0.767147
	-2.372622
	-2.240873
	0.998758
	2.865836
	0.766502
	-2.372944
	-2.241195
	1.000368
	2.867446
	0.765214
	-2.372944
	-2.239584
	1.001013
	2.864869
	0.761026
	-2.373911
	-2.239262
	0.999402
	2.861326
	0.761348
	-2.373911
	-2.236685
	1.001657
	2.862292
	0.762315
	-2.371012
	-2.238618
	0.998436
	2.861326
	0.766180
	-2.369723
	-2.236685
	0.995214
	2.861970
	0.765858
	-2.370367
	-2.238618
	0.996503
	2.864547
	0.766180
	-2.370045
	-2.241839
	0.997791
	2.864225
	0.765536
	-2.372300
	-2.242806
	1.000046
	2.864869
	0.765858
	-2.373589
	-2.239584
	1.001013
	2.863581
	0.764892
	-2.374555
	-2.237974
	0.999724
	2.863581
	0.761993
	-2.371978
	-2.237652
	0.998113
	2.862614
	0.763925
	-2.368757
	-2.237652
	0.995536
	2.861970
	0.764892
	-2.369723
	-2.239907
	0.996503
	2.863259
	0.765536
	-2.370689
	-2.243772
	0.997791
	2.863903
	0.766180
	-2.371978
	-2.243128
	1.000368
	2.864225
	0.764892
	-2.374233
	-2.239907
	1.001013
	2.864869
	0.766180
	-2.374555
	-2.238296
	1.000046
	2.861326
	0.762959
	-2.371656
	-2.237007
	0.998113
	2.861648
	0.761993
	-2.369723
	-2.237330
	0.996825
	2.860682
	0.763603
	-2.370367
	-2.238940
	0.995536
	2.863903
	0.767147
	-2.369723
	-2.242161
	0.995214
	2.864225
	0.765214
	-2.370367
	-2.243772
	0.997791
	2.865514
	0.766502
	-2.371656
	-2.242484
	0.999080
	2.865192
	0.767469
	-2.374233
	-2.238618
	1.001657
	2.864547
	0.765536
	-2.374233
	-2.238940
	0.998436
	2.862937
	0.762315
	-2.371656
	-2.237330
	0.997791
	2.862292
	0.762637
	-2.369079
	-2.237652
	0.996825
	2.861326
	0.764570
	-2.370045
	-2.239262
	0.996181
	2.862292
	0.767791
	-2.368112
	-2.239907
	0.996503
	2.862937
	0.766502
	-2.368757
	-2.241839
	0.996181
	2.863581
	0.767469
	-2.370689
	-2.242161
	0.997791
	2.864547
	0.767147
	-2.372622
	-2.242484
	0.999402
	2.865192
	0.767791
	-2.372944
	-2.241517
	0.999080
	2.864869
	0.765214
	-2.373911
	-2.240873
	0.997791
	2.864869
	0.765214
	-2.373911
	-2.239584
	0.999402
	2.864547
	0.763281
	-2.373911
	-2.238940
	0.999402
	2.863903
	0.762637
	-2.370045
	-2.237974
	0.998436
	2.864547
	0.762959
	-2.370367
	-2.239262
	0.998436
	2.863259
	0.762637
	-2.370689
	-2.239262
	0.999402
	2.862292
	0.762315
	-2.369401
	-2.241195
	0.999080
	2.861648
	0.763603
	-2.369079
	-2.239262
	0.998436
	2.860037
	0.765858
	-2.370689
	-2.240551
	0.996181
	2.859715
	0.768113
	-2.371334
	-2.239262
	0.994892
	2.862614
	0.768113
	-2.370367
	-2.241517
	0.994248
	2.864869
	0.767147
	-2.370045
	-2.241517
	0.994248
	2.865514
	0.766825
	-2.371656
	-2.244094
	0.995858
	2.864547
	0.765858
	-2.371978
	-2.245383
	0.998758
	2.864869
	0.766180
	-2.372944
	-2.243128
	0.999402
	2.863903
	0.766502
	-2.373267
	-2.239907
	0.998436
	2.863903
	0.765858
	-2.374233
	-2.239907
	0.998758
	2.861970
	0.764247
	-2.372300
	-2.239262
	0.997147
	2.861004
	0.762959
	-2.371012
	-2.237974
	0.996825
	2.862937
	0.765214
	-2.369723
	-2.239907
	0.994892
	2.861326
	0.766180
	-2.369079
	-2.240873
	0.993926
	2.860037
	0.765858
	-2.368757
	-2.241517
	0.994570
	2.863259
	0.766825
	-2.369401
	-2.241517
	0.995214
	2.863259
	0.768757
	-2.371656
	-2.242161
	0.994570
	2.863903
	0.768757
	-2.370367
	-2.242484
	0.995858
	2.864225
	0.768757
	-2.372300
	-2.242806
	0.997469
	2.865192
	0.767147
	-2.373911
	-2.241517
	0.998113
	2.866158
	0.769079
	-2.372622
	-2.240873
	0.997791
	2.865514
	0.767147
	-2.373267
	-2.242806
	0.997469
	2.864869
	0.764892
	-2.372622
	-2.241195
	0.997469
	2.864869
	0.761670
	-2.371334
	-2.240551
	0.998436
	2.862937
	0.765536
	-2.369079
	-2.238618
	0.998113
	2.860037
	0.765858
	-2.368435
	-2.239262
	0.996503
	2.860360
	0.767147
	-2.369079
	-2.239907
	0.993926
	2.861004
	0.769079
	-2.370045
	-2.240551
	0.994570
	2.865836
	0.771334
	-2.371334
	-2.241517
	0.995214
	2.864869
	0.768757
	-2.371978
	-2.241839
	0.996825
	2.864225
	0.765858
	-2.373267
	-2.238940
	0.998113
	2.864547
	0.765214
	-2.372944
	-2.238940
	0.998113
	2.865514
	0.765536
	-2.371334
	-2.238296
	0.998113
	2.865514
	0.764570
	-2.370367
	-2.239907
	0.997791
	2.864547
	0.763925
	-2.368435
	-2.238618
	0.998113
	2.862937
	0.764892
	-2.370689
	-2.240229
	0.999402
	2.862292
	0.765536
	-2.369401
	-2.239907
	0.998758
	2.861648
	0.765536
	-2.369401
	-2.239907
	0.996181
	2.859715
	0.765536
	-2.368757
	-2.238618
	0.995536
	2.860682
	0.767791
	-2.369723
	-2.238940
	0.995214
	2.861970
	0.767791
	-2.367790
	-2.241195
	0.993926
	2.863581
	0.769079
	-2.366824
	-2.241195
	0.993604
	2.860360
	0.769079
	-2.368757
	-2.242806
	0.994570
	2.862614
	0.770046
	-2.368757
	-2.242161
	0.995536
	2.863259
	0.770046
	-2.370367
	-2.243450
	0.994570
	2.866158
	0.768757
	-2.372944
	-2.242484
	0.995214
	2.864547
	0.765858
	-2.372944
	-2.240873
	0.998436
	2.866480
	0.765858
	-2.370045
	-2.240229
	0.998113
	2.863903
	0.763925
	-2.370689
	-2.240551
	0.998436
	2.863581
	0.763603
	-2.369723
	-2.240229
	0.997791
	2.861326
	0.764892
	-2.370367
	-2.239262
	0.998113
	2.860682
	0.766180
	-2.369079
	-2.239584
	0.996825
	2.861648
	0.766502
	-2.368757
	-2.239262
	0.994248
	2.860360
	0.768113
	-2.369401
	-2.238940
	0.993604
	2.861648
	0.769402
	-2.369079
	-2.240229
	0.992315
	2.861648
	0.768757
	-2.367790
	-2.239584
	0.993604
	2.863259
	0.769079
	-2.368112
	-2.243772
	0.991671
	2.865192
	0.770046
	-2.367146
	-2.242484
	0.993926
	2.864869
	0.769724
	-2.369079
	-2.245061
	0.994892
	2.863903
	0.768435
	-2.370689
	-2.245061
	0.997469
	2.864547
	0.768757
	-2.371978
	-2.243772
	0.995858
	2.863259
	0.768113
	-2.374233
	-2.240873
	0.995858
	2.862937
	0.766825
	-2.371012
	-2.240229
	0.996181
	2.863259
	0.766825
	-2.365858
	-2.239262
	0.996181
	2.863903
	0.766502
	-2.366502
	-2.239907
	0.994570
	2.863259
	0.768113
	-2.367468
	-2.241195
	0.994248
	2.860360
	0.769724
	-2.368757
	-2.241839
	0.992959
	2.862292
	0.770046
	-2.368757
	-2.242484
	0.993604
	2.866802
	0.770690
	-2.369079
	-2.242161
	0.992959
	2.866158
	0.769724
	-2.371012
	-2.244094
	0.994248
	2.864869
	0.768113
	-2.370367
	-2.244094
	0.997469
	2.864547
	0.765858
	-2.371334
	-2.242484
	0.997791
	2.865514
	0.766502
	-2.371012
	-2.240229
	0.997147
	2.863581
	0.767791
	-2.371656
	-2.239584
	0.995858
	2.861326
	0.766180
	-2.369079
	-2.239262
	0.995858
	2.861648
	0.767469
	-2.369401
	-2.240551
	0.993604
	2.863259
	0.770046
	-2.366502
	-2.239584
	0.991993
	2.862292
	0.769724
	-2.368112
	-2.243450
	0.992637
	2.862292
	0.769402
	-2.367468
	-2.243450
	0.992959
	2.863903
	0.771334
	-2.366502
	-2.243450
	0.994248
	2.865514
	0.770690
	-2.368112
	-2.243772
	0.993926
	2.864869
	0.771979
	-2.370367
	-2.245061
	0.994248
	2.863581
	0.770368
	-2.371656
	-2.244416
	0.997147
	2.865192
	0.769402
	-2.372622
	-2.242161
	0.996181
	2.866158
	0.768435
	-2.371656
	-2.240551
	0.994570
	2.864547
	0.766825
	-2.371012
	-2.241517
	0.994570
	2.862614
	0.764892
	-2.369079
	-2.241195
	0.996181
	2.862292
	0.765214
	-2.367790
	-2.242484
	0.994248
	2.861970
	0.766825
	-2.366502
	-2.241517
	0.994248
	2.860682
	0.770046
	-2.367468
	-2.242161
	0.993926
	2.858427
	0.769402
	-2.368435
	-2.243128
	0.992637
	2.860360
	0.771334
	-2.367468
	-2.242161
	0.992637
	2.861970
	0.770046
	-2.367468
	-2.239262
	0.992315
	2.861648
	0.771012
	-2.367468
	-2.241517
	0.990382
	2.862937
	0.770046
	-2.368435
	-2.245061
	0.991993
	2.866158
	0.770690
	-2.367790
	-2.244738
	0.993281
	2.866480
	0.769724
	-2.370367
	-2.246349
	0.992959
	2.864547
	0.770046
	-2.371012
	-2.246349
	0.995536
	2.864225
	0.770690
	-2.371012
	-2.246027
	0.997147
	2.864547
	0.769724
	-2.371012
	-2.244416
	0.996503
	2.866158
	0.771334
	-2.372300
	-2.244738
	0.993604
	2.864225
	0.771334
	-2.371978
	-2.244094
	0.994248
	2.865514
	0.770690
	-2.372300
	-2.244416
	0.994892
	2.865836
	0.768435
	-2.370367
	-2.243772
	0.995536
	2.866480
	0.769079
	-2.370045
	-2.243772
	0.994892
	2.864547
	0.768435
	-2.370689
	-2.245061
	0.995214
	2.864547
	0.770690
	-2.371334
	-2.243772
	0.996825
	2.863903
	0.769724
	-2.371334
	-2.243772
	0.995214
	2.864869
	0.770368
	-2.370689
	-2.241517
	0.994892
	2.865192
	0.770046
	-2.371656
	-2.242161
	0.994570
	2.864547
	0.768757
	-2.371334
	-2.241517
	0.996503
	2.865192
	0.767147
	-2.371012
	-2.242161
	0.996181
	2.866480
	0.768113
	-2.369401
	-2.242806
	0.994892
	2.865192
	0.767791
	-2.370045
	-2.243450
	0.995214
	2.863259
	0.768435
	-2.369079
	-2.241195
	0.996825
	2.863259
	0.767469
	-2.369079
	-2.242161
	0.997147
	2.863903
	0.769402
	-2.368757
	-2.240873
	0.995214
	2.862937
	0.769724
	-2.368112
	-2.240873
	0.994570
	2.861326
	0.769724
	-2.368757
	-2.240229
	0.996181
	2.861970
	0.768757
	-2.367790
	-2.241839
	0.993604
	2.861970
	0.770690
	-2.367468
	-2.240873
	0.991671
	2.861970
	0.770046
	-2.368435
	-2.241517
	0.992315
	2.861648
	0.769402
	-2.366824
	-2.242161
	0.993604
	2.862614
	0.769724
	-2.365858
	-2.242484
	0.992637
	2.862614
	0.770368
	-2.365213
	-2.241839
	0.993281
	2.860360
	0.771012
	-2.367468
	-2.243772
	0.991349
	2.859715
	0.772301
	-2.366824
	-2.241839
	0.991671
	2.861004
	0.772945
	-2.364891
	-2.241195
	0.990704
	2.862937
	0.773911
	-2.366824
	-2.241195
	0.989416
	2.863581
	0.772945
	-2.366502
	-2.243450
	0.989738
	2.864225
	0.771334
	-2.368435
	-2.246671
	0.990382
	2.865192
	0.771656
	-2.365858
	-2.244094
	0.991349
	2.866158
	0.771656
	-2.367790
	-2.246671
	0.991671
	2.864869
	0.773267
	-2.369079
	-2.245705
	0.993926
	2.864225
	0.773267
	-2.370045
	-2.245705
	0.994570
	2.865192
	0.771656
	-2.371334
	-2.243128
	0.993604
	2.864869
	0.771979
	-2.372622
	-2.243450
	0.993281
	2.864547
	0.768435
	-2.371334
	-2.242484
	0.993604
	2.863903
	0.768435
	-2.369723
	-2.242806
	0.993281
	2.863903
	0.767147
	-2.368435
	-2.241517
	0.994570
	2.865192
	0.768757
	-2.367468
	-2.242806
	0.994570
	2.863581
	0.768435
	-2.366824
	-2.243128
	0.992315
	2.860682
	0.767791
	-2.366502
	-2.244094
	0.992637
	2.860360
	0.769079
	-2.366502
	-2.242806
	0.990704
	2.860037
	0.772623
	-2.367146
	-2.243128
	0.988772
	2.859071
	0.773589
	-2.367146
	-2.243772
	0.989094
	2.862937
	0.773589
	-2.365858
	-2.243450
	0.988772
	2.863903
	0.772623
	-2.365858
	-2.244416
	0.989738
	2.865514
	0.773589
	-2.365213
	-2.245061
	0.990060
	2.863903
	0.771979
	-2.365535
	-2.246027
	0.990382
	2.866158
	0.773589
	-2.367146
	-2.245383
	0.991671
	2.864869
	0.772623
	-2.368757
	-2.244738
	0.992959
	2.865514
	0.774878
	-2.369401
	-2.245705
	0.992959
	2.864547
	0.771979
	-2.370367
	-2.243128
	0.992959
	2.865836
	0.771979
	-2.370367
	-2.244094
	0.993281
	2.866158
	0.771656
	-2.369723
	-2.243128
	0.995214
	2.866480
	0.770690
	-2.369723
	-2.244094
	0.994248
	2.866158
	0.770368
	-2.367468
	-2.242484
	0.993604
	2.864547
	0.769724
	-2.367146
	-2.240551
	0.995536
	2.864225
	0.770690
	-2.366502
	-2.242161
	0.993926
	2.862292
	0.771979
	-2.364569
	-2.241517
	0.992315
	2.863259
	0.773911
	-2.365535
	-2.242161
	0.989416
	2.862292
	0.772945
	-2.364891
	-2.240229
	0.991349
	2.862614
	0.771979
	-2.365535
	-2.243128
	0.989094
	2.862614
	0.773911
	-2.364247
	-2.244094
	0.990060
	2.863259
	0.774556
	-2.364891
	-2.245061
	0.989094
	2.863581
	0.775200
	-2.366180
	-2.245061
	0.990060
	2.863581
	0.775200
	-2.365535
	-2.243772
	0.989094
	2.865192
	0.774233
	-2.365213
	-2.244416
	0.988127
	2.865836
	0.773911
	-2.365535
	-2.244416
	0.988449
	2.865836
	0.774556
	-2.365858
	-2.246671
	0.989738
	2.864547
	0.774878
	-2.363603
	-2.245705
	0.990382
	2.866158
	0.774878
	-2.364891
	-2.245705
	0.991027
	2.865192
	0.775844
	-2.366502
	-2.244738
	0.990060
	2.863259
	0.776811
	-2.366502
	-2.245061
	0.990060
	2.865514
	0.775522
	-2.364891
	-2.244094
	0.990060
	2.866802
	0.773267
	-2.366180
	-2.245061
	0.990382
	2.867769
	0.774233
	-2.367468
	-2.247315
	0.992959
	2.866158
	0.773589
	-2.367146
	-2.245061
	0.995536
	2.865836
	0.772945
	-2.368435
	-2.243450
	0.993281
	2.865514
	0.773589
	-2.368757
	-2.241839
	0.993281
	2.864547
	0.771656
	-2.366824
	-2.242484
	0.993604
	2.864225
	0.771334
	-2.365858
	-2.243772
	0.991349
	2.862614
	0.771334
	-2.363603
	-2.242484
	0.992315
	2.862292
	0.774556
	-2.364569
	-2.244416
	0.990382
	2.861004
	0.775200
	-2.365535
	-2.245061
	0.988772
	2.863581
	0.775844
	-2.366824
	-2.246671
	0.989738
	2.865514
	0.773589
	-2.367790
	-2.244738
	0.991993
	2.866802
	0.773589
	-2.368757
	-2.244416
	0.993281
	2.865192
	0.771979
	-2.368112
	-2.244738
	0.992315
	2.865514
	0.770368
	-2.365213
	-2.242484
	0.992959
	2.860682
	0.771334
	-2.365858
	-2.243128
	0.991993
	2.860360
	0.773911
	-2.365213
	-2.243772
	0.989416
	2.861326
	0.775844
	-2.365858
	-2.244416
	0.986517
	2.863259
	0.774233
	-2.365858
	-2.245705
	0.988127
	2.865836
	0.775200
	-2.367146
	-2.246027
	0.989094
	2.866158
	0.774556
	-2.366824
	-2.247315
	0.991027
	2.868413
	0.772945
	-2.368757
	-2.247315
	0.989416
	2.866158
	0.773589
	-2.369079
	-2.245705
	0.992959
	2.866158
	0.773267
	-2.367468
	-2.245383
	0.992959
	2.866158
	0.772623
	-2.366502
	-2.244416
	0.993281
	2.864547
	0.770690
	-2.367790
	-2.245061
	0.991027
	2.861970
	0.771979
	-2.366824
	-2.243128
	0.991671
	2.861326
	0.771979
	-2.366502
	-2.244094
	0.988449
	2.862292
	0.773911
	-2.365535
	-2.244416
	0.986517
	2.862292
	0.775844
	-2.364569
	-2.246027
	0.986839
	2.863903
	0.774878
	-2.364247
	-2.246993
	0.988449
	2.864225
	0.775522
	-2.365858
	-2.248604
	0.991671
	2.866480
	0.774556
	-2.368757
	-2.245705
	0.992637
	2.866158
	0.775200
	-2.367790
	-2.245061
	0.991671
	2.863903
	0.771334
	-2.366502
	-2.243450
	0.989738
	2.862292
	0.769402
	-2.365213
	-2.242806
	0.989094
	2.861648
	0.773589
	-2.365213
	-2.244416
	0.987161
	2.863259
	0.775522
	-2.364891
	-2.247960
	0.987805
	2.864869
	0.774556
	-2.365858
	-2.248926
	0.990382
	2.865836
	0.775522
	-2.366502
	-2.246671
	0.992315
	2.866480
	0.776166
	-2.369401
	-2.247638
	0.992315
	2.864225
	0.773911
	-2.369723
	-2.244738
	0.991349
	2.864869
	0.772945
	-2.369401
	-2.243128
	0.991349
	2.864225
	0.771979
	-2.367146
	-2.241839
	0.991349
	2.864225
	0.772945
	-2.366180
	-2.243772
	0.990060
	2.861648
	0.774233
	-2.364247
	-2.244094
	0.987161
	2.862614
	0.776166
	-2.364891
	-2.244094
	0.985550
	2.864547
	0.776488
	-2.365213
	-2.246993
	0.987805
	2.866158
	0.775844
	-2.366180
	-2.247960
	0.988449
	2.867124
	0.775200
	-2.367790
	-2.248926
	0.989094
	2.867124
	0.773911
	-2.367468
	-2.245383
	0.991349
	2.866158
	0.771656
	-2.368435
	-2.243772
	0.991671
	2.864225
	0.771979
	-2.364247
	-2.245061
	0.989738
	2.861326
	0.772945
	-2.362958
	-2.244094
	0.987805
	2.862614
	0.775844
	-2.364247
	-2.246027
	0.987161
	2.864547
	0.776488
	-2.366502
	-2.248604
	0.991027
	2.865192
	0.775844
	-2.366502
	-2.247638
	0.991027
	2.865514
	0.773589
	-2.369401
	-2.245383
	0.990382
	2.863259
	0.772301
	-2.369401
	-2.243450
	0.990704
	2.862937
	0.772301
	-2.365858
	-2.243450
	0.988772
	2.862292
	0.773589
	-2.364247
	-2.243772
	0.986517
	2.862614
	0.774233
	-2.364891
	-2.246349
	0.984906
	2.861970
	0.775844
	-2.364569
	-2.245705
	0.987483
	2.864225
	0.776488
	-2.363281
	-2.246671
	0.987483
	2.866480
	0.776488
	-2.363603
	-2.248282
	0.986839
	2.865836
	0.776166
	-2.366180
	-2.249248
	0.987805
	2.866158
	0.775844
	-2.365858
	-2.249892
	0.989416
	2.864225
	0.776166
	-2.365535
	-2.249892
	0.989738
	2.865514
	0.775844
	-2.367468
	-2.248926
	0.990060
	2.864869
	0.777133
	-2.368112
	-2.249248
	0.988772
	2.863903
	0.777133
	-2.368435
	-2.248604
	0.991027
	2.865192
	0.776488
	-2.369079
	-2.247960
	0.989416
	2.864547
	0.775522
	-2.368757
	-2.246027
	0.989416
	2.864547
	0.774878
	-2.369079
	-2.246993
	0.988449
	2.865192
	0.773911
	-2.368435
	-2.247315
	0.990060
	2.866158
	0.773589
	-2.367468
	-2.246993
	0.988772
	2.865836
	0.775522
	-2.367468
	-2.248282
	0.989738
	2.864869
	0.775200
	-2.366180
	-2.249248
	0.990382
	2.864869
	0.776166
	-2.368435
	-2.247638
	0.989416
	2.864869
	0.776166
	-2.367468
	-2.245383
	0.990704
	2.865514
	0.775200
	-2.369079
	-2.246349
	0.988772
	2.863581
	0.772623
	-2.368112
	-2.244738
	0.989738
	2.864869
	0.771334
	-2.368112
	-2.245705
	0.987805
	2.864547
	0.772623
	-2.365858
	-2.244738
	0.990382
	2.863259
	0.773267
	-2.365535
	-2.246349
	0.989416
	2.862937
	0.771979
	-2.365213
	-2.246349
	0.988772
	2.861648
	0.773911
	-2.365213
	-2.245383
	0.988449
	2.860360
	0.774556
	-2.365858
	-2.244416
	0.987483
	2.861648
	0.774233
	-2.364247
	-2.245705
	0.985228
	2.861326
	0.774233
	-2.363603
	-2.247315
	0.984262
	2.862292
	0.777133
	-2.362958
	-2.244738
	0.984584
	2.861326
	0.776166
	-2.363925
	-2.246993
	0.986517
	2.864225
	0.777777
	-2.363603
	-2.249892
	0.984262
	2.864547
	0.775200
	-2.366824
	-2.251181
	0.987483
	2.865514
	0.776166
	-2.369401
	-2.250215
	0.989738
	2.863259
	0.775522
	-2.367146
	-2.246671
	0.990382
	2.863581
	0.774878
	-2.367146
	-2.245383
	0.988772
	2.863581
	0.774556
	-2.368435
	-2.246027
	0.988127
	2.864547
	0.775522
	-2.367468
	-2.244738
	0.988449
	2.863581
	0.774556
	-2.367790
	-2.245383
	0.988127
	2.864547
	0.773911
	-2.365535
	-2.242484
	0.988772
	2.864547
	0.773589
	-2.366180
	-2.245383
	0.987805
	2.864869
	0.773589
	-2.364891
	-2.245061
	0.988449
	2.864869
	0.772945
	-2.365213
	-2.244416
	0.988449
	2.864547
	0.773589
	-2.363925
	-2.245705
	0.988127
	2.862937
	0.774233
	-2.363603
	-2.247315
	0.987805
	2.861648
	0.775844
	-2.362314
	-2.246993
	0.988127
	2.861648
	0.776166
	-2.362958
	-2.246349
	0.987483
	2.861004
	0.777455
	-2.363603
	-2.246349
	0.986839
	2.860037
	0.778421
	-2.363281
	-2.246993
	0.984584
	2.861326
	0.778421
	-2.364247
	-2.247315
	0.984584
	2.864225
	0.780032
	-2.363603
	-2.247638
	0.984584
	2.862614
	0.778743
	-2.366180
	-2.249892
	0.986517
	2.865514
	0.778421
	-2.366180
	-2.249892
	0.986195
	2.866158
	0.777455
	-2.367146
	-2.247315
	0.987805
	2.866158
	0.777455
	-2.367146
	-2.246349
	0.989416
	2.866158
	0.776811
	-2.366180
	-2.246027
	0.988127
	2.864869
	0.774878
	-2.365858
	-2.245383
	0.987161
	2.865514
	0.775200
	-2.365535
	-2.244738
	0.987805
	2.864225
	0.774878
	-2.365213
	-2.243772
	0.988127
	2.863581
	0.775844
	-2.363281
	-2.244738
	0.986517
	2.862614
	0.776166
	-2.362314
	-2.245705
	0.984584
	2.861326
	0.777455
	-2.363281
	-2.245061
	0.984262
	2.863903
	0.779065
	-2.362636
	-2.247960
	0.985872
	2.867124
	0.780032
	-2.363925
	-2.250537
	0.985228
	2.867446
	0.776811
	-2.366502
	-2.250215
	0.986839
	2.866158
	0.776166
	-2.366180
	-2.246671
	0.988449
	2.864225
	0.774878
	-2.364891
	-2.246349
	0.989094
	2.864225
	0.776811
	-2.361026
	-2.246993
	0.985550
	2.862292
	0.780032
	-2.363603
	-2.248604
	0.984906
	2.864225
	0.780354
	-2.364247
	-2.250859
	0.986839
	2.864225
	0.779710
	-2.366824
	-2.248604
	0.988449
	2.865836
	0.777133
	-2.366502
	-2.245061
	0.988127
	2.864869
	0.776811
	-2.366824
	-2.245383
	0.987483
	2.863259
	0.775522
	-2.363281
	-2.245061
	0.986517
	2.862937
	0.775200
	-2.361670
	-2.244738
	0.984906
	2.863581
	0.777455
	-2.361348
	-2.246349
	0.985228
	2.861326
	0.778099
	-2.362636
	-2.247638
	0.984262
	2.860682
	0.778743
	-2.361670
	-2.246993
	0.984584
	2.862937
	0.778421
	-2.362636
	-2.248282
	0.983940
	2.864225
	0.780998
	-2.362314
	-2.249248
	0.986195
	2.863581
	0.779710
	-2.363281
	-2.251825
	0.984262
	2.865192
	0.780032
	-2.364569
	-2.249570
	0.982973
	2.865514
	0.780032
	-2.365213
	-2.249892
	0.983618
	2.865836
	0.779388
	-2.366180
	-2.248926
	0.987483
	2.866802
	0.778099
	-2.365858
	-2.251503
	0.986195
	2.865514
	0.776811
	-2.365535
	-2.248282
	0.987483
	2.866480
	0.775844
	-2.365213
	-2.246993
	0.988127
	2.864547
	0.775844
	-2.364891
	-2.247315
	0.988127
	2.861970
	0.776488
	-2.363925
	-2.248282
	0.986195
	2.860682
	0.776811
	-2.362958
	-2.247638
	0.984262
	2.859393
	0.779388
	-2.361992
	-2.246349
	0.984584
	2.861004
	0.780032
	-2.363603
	-2.248926
	0.983295
	2.862614
	0.780354
	-2.362636
	-2.249248
	0.981363
	2.863903
	0.779065
	-2.364247
	-2.250215
	0.983940
	2.866802
	0.780354
	-2.363603
	-2.249892
	0.985228
	2.865192
	0.778421
	-2.365213
	-2.250859
	0.986517
	2.867446
	0.778743
	-2.365858
	-2.249248
	0.986195
	2.865192
	0.777455
	-2.366824
	-2.249248
	0.988127
	2.864547
	0.777133
	-2.366180
	-2.247638
	0.988772
	2.864547
	0.776166
	-2.364569
	-2.247315
	0.987161
	2.863903
	0.775844
	-2.365535
	-2.245705
	0.986839
	2.863259
	0.775844
	-2.363281
	-2.246993
	0.984584
	2.861326
	0.779065
	-2.360704
	-2.245705
	0.984262
	2.862292
	0.777133
	-2.361992
	-2.246993
	0.983940
	2.862614
	0.778421
	-2.362958
	-2.247638
	0.983618
	2.862292
	0.778743
	-2.361026
	-2.247638
	0.983940
	2.861648
	0.778421
	-2.359737
	-2.247638
	0.982651
	2.863581
	0.780998
	-2.361670
	-2.249570
	0.982007
	2.863581
	0.780676
	-2.363281
	-2.249570
	0.983618
	2.864547
	0.781965
	-2.361670
	-2.251503
	0.984262
	2.864547
	0.780998
	-2.363925
	-2.250215
	0.986195
	2.864225
	0.782287
	-2.366180
	-2.249892
	0.986517
	2.864547
	0.779710
	-2.366824
	-2.250537
	0.987161
	2.866158
	0.778099
	-2.366180
	-2.247960
	0.986195
	2.866158
	0.776811
	-2.364247
	-2.246349
	0.984906
	2.864547
	0.777133
	-2.362958
	-2.246027
	0.985550
	2.862614
	0.777133
	-2.362636
	-2.248282
	0.983618
	2.861648
	0.778099
	-2.360059
	-2.246993
	0.984584
	2.861326
	0.777455
	-2.361026
	-2.247960
	0.983940
	2.860360
	0.781320
	-2.361026
	-2.248604
	0.984906
	2.861648
	0.779388
	-2.362636
	-2.249570
	0.983618
	2.861004
	0.780032
	-2.362314
	-2.247960
	0.983295
	2.861970
	0.782609
	-2.363281
	-2.248282
	0.982973
	2.863259
	0.783897
	-2.362314
	-2.250215
	0.982329
	2.865836
	0.781965
	-2.362636
	-2.250537
	0.983295
	2.866802
	0.781965
	-2.363281
	-2.250859
	0.982007
	2.865836
	0.781642
	-2.362314
	-2.250215
	0.983618
	2.866802
	0.780676
	-2.362636
	-2.252147
	0.983618
	2.867124
	0.781320
	-2.361992
	-2.251503
	0.984584
	2.866158
	0.779710
	-2.364891
	-2.248926
	0.989094
	2.865836
	0.780032
	-2.364569
	-2.248282
	0.987161
	2.863581
	0.777777
	-2.361992
	-2.246993
	0.984262
	2.861648
	0.780676
	-2.361670
	-2.247315
	0.982651
	2.861326
	0.781642
	-2.361348
	-2.247638
	0.981363
	2.863903
	0.782609
	-2.359737
	-2.248282
	0.981041
	2.864869
	0.780676
	-2.362958
	-2.249892
	0.982651
	2.866802
	0.780998
	-2.362958
	-2.250859
	0.983940
	2.866802
	0.780032
	-2.363281
	-2.252792
	0.985228
	2.865836
	0.780032
	-2.362958
	-2.250537
	0.987483
	2.865836
	0.779710
	-2.365858
	-2.248926
	0.987161
	2.863581
	0.778421
	-2.365535
	-2.249248
	0.985550
	2.862292
	0.776811
	-2.363925
	-2.247960
	0.984906
	2.863259
	0.779065
	-2.361992
	-2.245061
	0.985872
	2.862937
	0.780998
	-2.361670
	-2.246671
	0.982651
	2.862937
	0.781320
	-2.361992
	-2.248604
	0.981363
	2.864869
	0.781320
	-2.360381
	-2.250215
	0.981041
	2.866158
	0.781642
	-2.360704
	-2.251825
	0.984262
	2.866158
	0.781965
	-2.363603
	-2.252792
	0.984906
	2.864547
	0.780998
	-2.365213
	-2.250215
	0.985872
	2.865836
	0.780998
	-2.365535
	-2.249248
	0.983618
	2.865514
	0.779065
	-2.365213
	-2.247315
	0.985228
	2.864547
	0.777455
	-2.362636
	-2.248282
	0.983618
	2.862614
	0.777777
	-2.360381
	-2.248926
	0.983940
	2.861970
	0.780676
	-2.359093
	-2.247315
	0.982973
	2.860682
	0.783575
	-2.360059
	-2.247960
	0.981363
	2.865192
	0.783575
	-2.360704
	-2.249248
	0.980718
	2.865192
	0.781320
	-2.363603
	-2.253436
	0.982651
	2.866158
	0.781642
	-2.363281
	-2.252469
	0.985872
	2.865192
	0.780354
	-2.365213
	-2.250859
	0.985872
	2.863903
	0.779388
	-2.363925
	-2.246993
	0.984584
	2.862937
	0.778421
	-2.363925
	-2.248282
	0.983295
	2.860360
	0.780032
	-2.360704
	-2.248604
	0.980396
	2.862937
	0.780998
	-2.361026
	-2.249892
	0.978786
	2.865514
	0.782287
	-2.361026
	-2.252792
	0.982007
	2.866158
	0.781965
	-2.364569
	-2.254402
	0.984584
	2.864547
	0.780998
	-2.365213
	-2.249570
	0.984584
	2.864547
	0.779065
	-2.364247
	-2.246993
	0.985228
	2.862614
	0.780354
	-2.362314
	-2.248604
	0.982007
	2.860682
	0.782287
	-2.362314
	-2.250859
	0.978786
	2.864225
	0.781642
	-2.361670
	-2.252792
	0.980718
	2.866480
	0.783253
	-2.361670
	-2.252147
	0.982651
	2.866158
	0.780354
	-2.364569
	-2.252469
	0.983940
	2.866480
	0.779065
	-2.363281
	-2.250215
	0.984906
	2.862937
	0.778421
	-2.360381
	-2.248282
	0.982651
	2.860682
	0.781320
	-2.361026
	-2.248604
	0.981363
	2.860037
	0.781965
	-2.361992
	-2.249570
	0.979430
	2.864225
	0.781642
	-2.362958
	-2.252147
	0.982973
	2.866802
	0.781642
	-2.363603
	-2.251181
	0.984584
	2.864869
	0.779388
	-2.362636
	-2.249570
	0.985228
	2.864547
	0.777133
	-2.360704
	-2.249248
	0.983618
	2.861970
	0.781320
	-2.360059
	-2.248604
	0.982973
	2.860037
	0.782609
	-2.361348
	-2.250537
	0.980396
	2.863903
	0.784542
	-2.360704
	-2.252469
	0.982651
	2.865514
	0.783253
	-2.365535
	-2.250215
	0.982973
	2.865836
	0.779388
	-2.364569
	-2.248926
	0.982329
	2.861970
	0.781320
	-2.359415
	-2.246993
	0.982007
	2.862937
	0.781965
	-2.360059
	-2.248282
	0.979108
	2.865514
	0.782287
	-2.361348
	-2.253758
	0.980396
	2.867124
	0.782287
	-2.363281
	-2.253114
	0.983618
	2.867124
	0.780676
	-2.363603
	-2.252147
	0.982329
	2.865192
	0.779388
	-2.361992
	-2.248282
	0.984262
	2.865514
	0.780998
	-2.361992
	-2.249248
	0.984906
	2.864547
	0.780676
	-2.362636
	-2.251503
	0.983618
	2.863581
	0.779710
	-2.361670
	-2.249570
	0.983295
	2.863259
	0.780998
	-2.360059
	-2.248282
	0.982651
	2.860037
	0.783897
	-2.360381
	-2.249570
	0.980074
	2.861648
	0.782931
	-2.361026
	-2.251503
	0.977819
	2.863259
	0.783253
	-2.361026
	-2.250859
	0.978463
	2.864869
	0.783253
	-2.361670
	-2.252792
	0.979430
	2.866480
	0.783575
	-2.361992
	-2.253436
	0.982973
	2.866802
	0.780998
	-2.363281
	-2.253114
	0.983295
	2.865836
	0.781320
	-2.363603
	-2.249892
	0.984584
	2.863581
	0.780354
	-2.362958
	-2.249892
	0.983618
	2.861970
	0.779065
	-2.361992
	-2.250215
	0.983295
	2.861648
	0.781320
	-2.360704
	-2.249570
	0.981363
	2.860360
	0.783253
	-2.361992
	-2.248926
	0.980074
	2.861648
	0.784542
	-2.358771
	-2.248604
	0.979430
	2.863903
	0.785186
	-2.358449
	-2.248926
	0.979108
	2.865514
	0.784219
	-2.360381
	-2.252147
	0.979430
	2.864547
	0.783897
	-2.360059
	-2.254402
	0.980074
	2.865836
	0.784542
	-2.360704
	-2.253758
	0.982973
	2.866158
	0.784219
	-2.364891
	-2.252792
	0.982651
	2.864869
	0.782287
	-2.364569
	-2.250215
	0.982651
	2.862937
	0.780354
	-2.362314
	-2.249248
	0.981041
	2.862937
	0.779710
	-2.359093
	-2.249248
	0.981363
	2.862292
	0.784864
	-2.358771
	-2.251181
	0.980074
	2.862614
	0.785830
	-2.358127
	-2.251503
	0.980718
	2.863903
	0.784542
	-2.361026
	-2.252469
	0.980074
	2.865836
	0.785830
	-2.362314
	-2.252147
	0.981363
	2.864547
	0.783253
	-2.363925
	-2.251503
	0.982651
	2.866158
	0.780676
	-2.362958
	-2.250537
	0.982329
	2.864225
	0.778743
	-2.359737
	-2.250215
	0.980718
	2.861970
	0.784542
	-2.358771
	-2.250537
	0.980718
	2.862614
	0.785830
	-2.360059
	-2.253436
	0.979430
	2.865192
	0.784219
	-2.362958
	-2.253436
	0.981041
	2.866158
	0.785186
	-2.362958
	-2.251181
	0.981685
	2.866802
	0.781320
	-2.361670
	-2.250859
	0.982651
	2.865192
	0.781320
	-2.361670
	-2.252147
	0.982973
	2.863903
	0.780998
	-2.361348
	-2.249570
	0.983618
	2.862937
	0.782287
	-2.360704
	-2.249892
	0.981363
	2.861648
	0.781642
	-2.358771
	-2.249570
	0.979430
	2.862614
	0.784219
	-2.358127
	-2.250859
	0.978141
	2.864547
	0.786474
	-2.359093
	-2.254724
	0.980074
	2.864869
	0.785508
	-2.362314
	-2.253436
	0.982329
	2.864869
	0.782931
	-2.362958
	-2.250537
	0.981363
	2.865514
	0.780998
	-2.361670
	-2.249570
	0.980396
	2.862292
	0.780998
	-2.360381
	-2.251503
	0.979430
	2.862614
	0.785830
	-2.358127
	-2.254402
	0.979430
	2.866158
	0.785186
	-2.361670
	-2.253114
	0.982651
	2.865836
	0.784542
	-2.364247
	-2.249570
	0.981363
	2.865192
	0.781320
	-2.361026
	-2.249570
	0.980718
	2.863259
	0.782609
	-2.357482
	-2.249570
	0.980074
	2.863259
	0.783253
	-2.359737
	-2.251825
	0.978141
	2.864547
	0.786474
	-2.359093
	-2.252147
	0.980396
	2.864225
	0.786152
	-2.361348
	-2.254080
	0.981685
	2.866802
	0.785186
	-2.361992
	-2.248926
	0.981363
	2.866158
	0.783253
	-2.360381
	-2.248926
	0.981685
	2.863259
	0.781320
	-2.358449
	-2.250537
	0.981041
	2.863259
	0.784219
	-2.357482
	-2.250859
	0.979108
	2.861970
	0.786152
	-2.359093
	-2.252147
	0.978463
	2.863259
	0.787119
	-2.359093
	-2.252469
	0.978786
	2.864547
	0.786474
	-2.360381
	-2.254402
	0.978141
	2.866480
	0.785508
	-2.361992
	-2.252792
	0.980074
	2.866158
	0.783897
	-2.361348
	-2.249248
	0.981363
	2.865192
	0.782609
	-2.358771
	-2.250859
	0.980718
	2.863259
	0.785186
	-2.356838
	-2.250537
	0.978141
	2.864547
	0.786474
	-2.359093
	-2.254402
	0.978463
	2.866158
	0.786152
	-2.360059
	-2.254724
	0.980396
	2.865192
	0.784219
	-2.361670
	-2.251503
	0.982651
	2.864547
	0.782287
	-2.359737
	-2.251503
	0.979430
	2.861970
	0.787119
	-2.358449
	-2.250215
	0.978141
	2.864225
	0.787441
	-2.358771
	-2.254080
	0.977175
	2.866802
	0.785186
	-2.359093
	-2.252792
	0.981041
	2.868413
	0.782609
	-2.362314
	-2.251503
	0.982329
	2.865836
	0.782287
	-2.360059
	-2.250537
	0.982973
	2.862292
	0.784219
	-2.357804
	-2.251503
	0.981363
	2.861970
	0.785186
	-2.357482
	-2.249248
	0.978141
	2.861648
	0.788407
	-2.358771
	-2.250859
	0.978463
	2.863903
	0.786797
	-2.360059
	-2.253114
	0.976853
	2.866480
	0.787119
	-2.357482
	-2.253436
	0.977175
	2.867124
	0.786474
	-2.357482
	-2.253758
	0.978786
	2.867446
	0.787763
	-2.359737
	-2.256013
	0.979752
	2.865514
	0.786152
	-2.359737
	-2.254724
	0.981363
	2.866480
	0.787441
	-2.360059
	-2.253758
	0.981041
	2.865836
	0.787763
	-2.362314
	-2.252147
	0.981685
	2.866480
	0.786797
	-2.362314
	-2.250859
	0.980718
	2.866802
	0.783897
	-2.362958
	-2.250859
	0.980074
	2.868735
	0.783575
	-2.361348
	-2.251825
	0.981041
	2.868413
	0.784864
	-2.361026
	-2.251181
	0.980718
	2.866480
	0.781642
	-2.360059
	-2.252147
	0.982007
	2.864225
	0.781642
	-2.361026
	-2.252147
	0.981041
	2.864225
	0.784864
	-2.359093
	-2.248926
	0.982329
	2.862292
	0.786152
	-2.357482
	-2.249892
	0.979108
	2.863581
	0.786797
	-2.358127
	-2.251181
	0.976531
	2.864869
	0.786474
	-2.357482
	-2.253758
	0.977175
	2.866158
	0.786797
	-2.358449
	-2.256657
	0.981041
	2.866802
	0.787441
	-2.361026
	-2.254724
	0.981041
	2.866802
	0.784864
	-2.362958
	-2.252147
	0.980396
	2.865192
	0.785186
	-2.360059
	-2.248926
	0.980718
	2.863259
	0.784542
	-2.357160
	-2.250537
	0.978141
	2.863581
	0.787441
	-2.356516
	-2.251181
	0.975886
	2.864869
	0.787441
	-2.357482
	-2.253436
	0.976531
	2.865192
	0.787763
	-2.358771
	-2.255691
	0.978141
	2.865514
	0.787441
	-2.361348
	-2.255046
	0.980396
	2.867124
	0.787441
	-2.360704
	-2.251181
	0.980074
	2.865836
	0.784542
	-2.361348
	-2.249892
	0.979752
	2.865514
	0.782931
	-2.359415
	-2.250859
	0.979752
	2.864225
	0.783253
	-2.357482
	-2.251503
	0.978463
	2.863581
	0.786152
	-2.355550
	-2.251181
	0.976853
	2.861970
	0.786797
	-2.357804
	-2.252469
	0.977175
	2.863581
	0.787763
	-2.357160
	-2.254402
	0.977819
	2.865836
	0.788085
	-2.358771
	-2.255691
	0.978786
	2.865514
	0.788085
	-2.360704
	-2.253114
	0.980718
	2.865192
	0.786474
	-2.362636
	-2.253114
	0.980396
	2.864869
	0.785830
	-2.361670
	-2.252147
	0.979430
	2.865514
	0.784864
	-2.361992
	-2.251181
	0.978786
	2.865836
	0.785830
	-2.360059
	-2.250537
	0.979430
	2.862937
	0.784219
	-2.357804
	-2.252147
	0.976209
	2.862292
	0.785186
	-2.357482
	-2.252147
	0.976209
	2.863903
	0.789051
	-2.356838
	-2.253758
	0.974276
	2.866158
	0.789051
	-2.356838
	-2.253758
	0.977497
	2.867769
	0.788085
	-2.357482
	-2.256335
	0.978786
	2.867769
	0.785508
	-2.361348
	-2.254724
	0.978786
	2.866802
	0.786474
	-2.361026
	-2.253758
	0.979108
	2.865836
	0.783897
	-2.359093
	-2.252469
	0.979108
	2.864547
	0.781965
	-2.358127
	-2.253114
	0.979430
	2.862292
	0.784542
	-2.357482
	-2.252469
	0.977175
	2.860682
	0.788729
	-2.357482
	-2.252792
	0.975886
	2.863581
	0.789051
	-2.357482
	-2.256657
	0.975564
	2.867124
	0.788407
	-2.359737
	-2.257301
	0.977497
	2.864547
	0.786797
	-2.363281
	-2.253114
	0.979430
	2.865192
	0.786152
	-2.361026
	-2.251503
	0.978463
	2.863581
	0.783897
	-2.356838
	-2.251181
	0.978141
	2.863259
	0.785186
	-2.357482
	-2.251503
	0.975886
	2.863259
	0.786474
	-2.357482
	-2.252792
	0.976209
	2.863259
	0.788729
	-2.356194
	-2.255369
	0.976531
	2.867124
	0.791306
	-2.357160
	-2.255369
	0.977819
	2.866158
	0.789696
	-2.361026
	-2.254724
	0.980074
	2.865836
	0.787441
	-2.361670
	-2.252792
	0.979430
	2.864547
	0.786797
	-2.360059
	-2.251503
	0.979430
	2.865192
	0.786152
	-2.357804
	-2.251181
	0.977819
	2.863903
	0.785830
	-2.357482
	-2.252469
	0.977819
	2.862614
	0.786474
	-2.355550
	-2.252792
	0.976531
	2.863259
	0.788407
	-2.355550
	-2.253758
	0.976209
	2.863259
	0.790662
	-2.356194
	-2.254724
	0.975564
	2.864225
	0.789374
	-2.358127
	-2.256335
	0.976853
	2.866158
	0.789374
	-2.359737
	-2.256657
	0.978141
	2.866802
	0.787763
	-2.362314
	-2.255046
	0.978463
	2.866480
	0.788729
	-2.360059
	-2.251181
	0.979752
	2.865514
	0.785186
	-2.361348
	-2.251825
	0.977497
	2.865836
	0.784542
	-2.360704
	-2.251825
	0.976853
	2.866158
	0.784542
	-2.359737
	-2.252469
	0.978786
	2.865836
	0.785830
	-2.358771
	-2.253114
	0.978786
	2.864869
	0.784542
	-2.358449
	-2.254080
	0.977497
	2.864547
	0.782931
	-2.358771
	-2.252792
	0.977819
	2.863259
	0.784864
	-2.358771
	-2.254080
	0.978141
	2.863581
	0.786152
	-2.357482
	-2.252792
	0.980074
	2.864225
	0.784864
	-2.361348
	-2.254080
	0.976209
	2.863903
	0.785830
	-2.361026
	-2.251825
	0.977497
	2.864869
	0.784864
	-2.358771
	-2.252469
	0.977497
	2.864547
	0.785186
	-2.357160
	-2.251825
	0.977497
	2.864547
	0.783253
	-2.357804
	-2.252792
	0.976853
	2.863903
	0.785508
	-2.357482
	-2.253114
	0.977175
	2.861004
	0.787119
	-2.355550
	-2.253114
	0.976531
	2.861970
	0.786152
	-2.355872
	-2.252792
	0.977497
	2.861970
	0.789374
	-2.356516
	-2.251825
	0.977497
	2.861326
	0.786797
	-2.357804
	-2.253758
	0.975564
	2.862614
	0.786797
	-2.356838
	-2.252792
	0.973954
	2.862614
	0.786474
	-2.355550
	-2.251503
	0.975886
	2.863259
	0.787119
	-2.356838
	-2.253436
	0.975886
	2.861648
	0.786797
	-2.356194
	-2.255046
	0.974920
	2.863259
	0.788729
	-2.356194
	-2.252792
	0.973632
	2.863259
	0.789051
	-2.355872
	-2.253758
	0.973954
	2.862937
	0.789696
	-2.354905
	-2.253758
	0.973954
	2.862937
	0.789051
	-2.356194
	-2.256335
	0.973309
	2.863903
	0.790018
	-2.355872
	-2.255046
	0.975564
	2.866158
	0.791628
	-2.356838
	-2.256979
	0.975564
	2.864225
	0.790340
	-2.357482
	-2.256335
	0.975886
	2.865836
	0.790340
	-2.359093
	-2.256335
	0.975886
	2.866158
	0.791306
	-2.360381
	-2.256657
	0.976853
	2.865514
	0.790018
	-2.360059
	-2.255691
	0.977175
	2.867124
	0.788729
	-2.360381
	-2.254724
	0.975886
	2.867446
	0.788729
	-2.360381
	-2.255691
	0.977175
	2.867446
	0.787441
	-2.360704
	-2.256013
	0.977497
	2.868413
	0.788407
	-2.357804
	-2.254724
	0.977497
	2.865836
	0.785830
	-2.357482
	-2.253436
	0.977819
	2.862614
	0.787119
	-2.356194
	-2.254402
	0.975886
	2.861326
	0.791306
	-2.355550
	-2.255369
	0.972987
	2.864547
	0.791951
	-2.356838
	-2.256335
	0.971699
	2.865192
	0.791628
	-2.359737
	-2.257301
	0.974598
	2.866480
	0.790984
	-2.358127
	-2.256979
	0.975242
	2.867124
	0.790018
	-2.358449
	-2.256979
	0.976209
	2.868091
	0.790018
	-2.359415
	-2.257623
	0.977175
	2.866802
	0.787763
	-2.360381
	-2.257623
	0.977819
	2.865192
	0.787119
	-2.358449
	-2.255046
	0.976853
	2.863903
	0.785830
	-2.359093
	-2.255369
	0.975564
	2.862937
	0.789374
	-2.356838
	-2.253436
	0.976209
	2.862937
	0.787763
	-2.357482
	-2.253758
	0.975242
	2.862614
	0.785508
	-2.357804
	-2.252792
	0.974598
	2.863259
	0.786797
	-2.356194
	-2.252792
	0.977175
	2.864225
	0.788085
	-2.354583
	-2.255369
	0.977497
	2.862937
	0.788085
	-2.353939
	-2.253436
	0.976209
	2.861326
	0.789374
	-2.356516
	-2.254080
	0.973954
	2.862292
	0.791628
	-2.356194
	-2.254402
	0.972343
	2.862292
	0.790340
	-2.354583
	-2.255369
	0.972665
	2.863259
	0.789051
	-2.354905
	-2.254402
	0.973954
	2.863259
	0.792273
	-2.355550
	-2.257946
	0.973954
	2.863259
	0.793239
	-2.356194
	-2.256657
	0.972021
	2.864225
	0.793239
	-2.356194
	-2.254724
	0.972021
	2.866480
	0.791951
	-2.356838
	-2.255691
	0.972343
	2.866480
	0.789696
	-2.357160
	-2.259556
	0.972665
	2.868091
	0.790984
	-2.356194
	-2.259234
	0.972665
	2.866480
	0.791306
	-2.356516
	-2.259234
	0.974920
	2.865514
	0.791306
	-2.356838
	-2.258590
	0.973632
	2.863903
	0.789374
	-2.359093
	-2.258590
	0.975242
	2.866802
	0.791306
	-2.359737
	-2.257301
	0.975564
	2.867769
	0.792595
	-2.359093
	-2.256657
	0.975886
	2.865836
	0.789696
	-2.359737
	-2.256979
	0.974920
	2.867124
	0.787441
	-2.360704
	-2.256979
	0.974920
	2.866480
	0.788407
	-2.359415
	-2.257301
	0.976209
	2.866802
	0.788729
	-2.358449
	-2.256335
	0.976531
	2.864547
	0.786797
	-2.357160
	-2.254724
	0.976531
	2.863581
	0.787441
	-2.357160
	-2.255046
	0.976853
	2.861648
	0.789051
	-2.357482
	-2.254724
	0.975242
	2.863259
	0.790018
	-2.355550
	-2.253436
	0.974276
	2.862292
	0.790340
	-2.355872
	-2.253114
	0.972665
	2.862292
	0.791628
	-2.355227
	-2.253758
	0.971055
	2.863259
	0.791306
	-2.355550
	-2.256657
	0.971377
	2.866480
	0.793239
	-2.353295
	-2.256335
	0.972987
	2.866158
	0.792595
	-2.354905
	-2.259556
	0.973954
	2.865836
	0.791951
	-2.357482
	-2.257623
	0.976853
	2.866480
	0.791306
	-2.359415
	-2.258268
	0.974276
	2.866480
	0.790984
	-2.359093
	-2.254080
	0.975564
	2.865836
	0.787441
	-2.357482
	-2.254724
	0.974920
	2.863259
	0.788407
	-2.354261
	-2.255369
	0.971055
	2.864547
	0.791628
	-2.355227
	-2.258268
	0.971377
	2.865836
	0.792917
	-2.357804
	-2.259556
	0.973632
	2.865836
	0.792595
	-2.358771
	-2.257946
	0.974920
	2.866158
	0.789374
	-2.360059
	-2.254402
	0.974598
	2.867124
	0.789696
	-2.357160
	-2.254080
	0.973954
	2.864225
	0.789696
	-2.355227
	-2.256013
	0.972665
	2.862937
	0.790662
	-2.354905
	-2.258268
	0.969444
	2.862614
	0.792917
	-2.356194
	-2.257946
	0.972021
	2.864869
	0.793883
	-2.356516
	-2.259234
	0.972665
	2.866802
	0.793239
	-2.357160
	-2.257946
	0.973954
	2.865836
	0.791951
	-2.360059
	-2.257301
	0.974276
	2.865514
	0.790984
	-2.359415
	-2.255046
	0.974598
	2.865514
	0.789051
	-2.356194
	-2.254402
	0.974276
	2.864869
	0.787441
	-2.354261
	-2.254724
	0.972665
	2.861970
	0.789374
	-2.355227
	-2.256335
	0.971699
	2.859393
	0.789696
	-2.355872
	-2.257301
	0.970410
	2.861004
	0.792273
	-2.355872
	-2.256013
	0.970088
	2.863259
	0.792595
	-2.357160
	-2.256657
	0.969444
	2.863903
	0.792917
	-2.355550
	-2.258268
	0.970732
	2.867124
	0.790662
	-2.356516
	-2.259878
	0.972665
	2.866802
	0.791306
	-2.356838
	-2.259556
	0.973632
	2.866480
	0.792595
	-2.359093
	-2.258912
	0.974276
	2.863903
	0.791306
	-2.359093
	-2.256013
	0.973632
	2.864547
	0.789051
	-2.360381
	-2.254402
	0.973632
	2.865192
	0.789374
	-2.355227
	-2.254724
	0.974276
	2.863903
	0.790984
	-2.353617
	-2.257301
	0.973309
	2.861970
	0.791951
	-2.354905
	-2.255691
	0.970410
	2.861326
	0.794205
	-2.355872
	-2.255046
	0.971055
	2.863581
	0.793561
	-2.354905
	-2.256657
	0.970088
	2.865514
	0.794205
	-2.353295
	-2.256979
	0.970732
	2.865514
	0.792917
	-2.354261
	-2.258268
	0.970732
	2.864225
	0.794528
	-2.354583
	-2.257946
	0.970088
	2.863581
	0.793883
	-2.354583
	-2.256979
	0.969766
	2.866802
	0.795172
	-2.353617
	-2.257623
	0.970410
	2.865514
	0.793561
	-2.354583
	-2.258590
	0.973309
	2.864869
	0.792595
	-2.356516
	-2.260523
	0.973309
	2.867124
	0.793883
	-2.356516
	-2.258268
	0.972665
	2.867124
	0.793561
	-2.356516
	-2.258912
	0.974276
	2.867769
	0.792273
	-2.356516
	-2.260523
	0.973954
	2.866480
	0.792595
	-2.356516
	-2.257946
	0.974920
	2.865192
	0.792273
	-2.359737
	-2.257623
	0.973309
	2.865192
	0.790984
	-2.355872
	-2.254080
	0.974920
	2.867124
	0.789051
	-2.355550
	-2.255691
	0.972987
	2.861970
	0.789696
	-2.354261
	-2.257301
	0.971699
	2.861326
	0.793561
	-2.354905
	-2.256013
	0.970088
	2.863581
	0.795494
	-2.354905
	-2.258268
	0.968800
	2.865514
	0.793883
	-2.355550
	-2.260200
	0.969444
	2.867124
	0.794528
	-2.355872
	-2.261167
	0.972987
	2.865836
	0.793561
	-2.356516
	-2.259556
	0.973309
	2.865836
	0.793239
	-2.358771
	-2.256335
	0.973309
	2.865514
	0.791951
	-2.357482
	-2.254402
	0.973632
	2.865192
	0.790340
	-2.356194
	-2.256013
	0.971699
	2.865836
	0.789051
	-2.354905
	-2.255691
	0.972343
	2.863259
	0.790662
	-2.352973
	-2.256335
	0.972665
	2.862614
	0.791628
	-2.352328
	-2.256657
	0.972987
	2.861326
	0.793561
	-2.353617
	-2.256657
	0.970732
	2.861970
	0.794850
	-2.355227
	-2.256335
	0.969122
	2.863903
	0.794850
	-2.354583
	-2.258590
	0.968477
	2.866480
	0.794205
	-2.354261
	-2.259234
	0.968477
	2.867769
	0.794205
	-2.353617
	-2.259556
	0.969766
	2.866158
	0.793883
	-2.355227
	-2.260845
	0.971055
	2.867446
	0.794528
	-2.353939
	-2.259878
	0.972665
	2.866158
	0.794528
	-2.355227
	-2.259234
	0.972665
	2.866158
	0.795816
	-2.357482
	-2.260845
	0.971377
	2.865514
	0.794850
	-2.356516
	-2.258590
	0.972343
	2.868413
	0.795172
	-2.357160
	-2.259556
	0.971699
	2.867446
	0.794850
	-2.356838
	-2.258912
	0.973954
	2.866480
	0.792595
	-2.356838
	-2.258590
	0.973632
	2.865514
	0.791628
	-2.359093
	-2.258590
	0.973954
	2.866158
	0.792917
	-2.357160
	-2.257301
	0.972665
	2.863903
	0.790340
	-2.357482
	-2.257301
	0.972343
	2.864547
	0.790662
	-2.355227
	-2.255691
	0.971055
	2.861648
	0.793561
	-2.354905
	-2.256335
	0.969122
	2.863259
	0.795494
	-2.353939
	-2.258912
	0.968155
	2.865192
	0.794528
	-2.355550
	-2.258912
	0.969766
	2.866480
	0.794528
	-2.358449
	-2.259234
	0.971377
	2.865836
	0.791306
	-2.357804
	-2.256013
	0.972665
	2.866802
	0.790984
	-2.354261
	-2.256013
	0.971055
	2.863259
	0.789696
	-2.354583
	-2.256979
	0.970088
	2.861648
	0.792917
	-2.352973
	-2.256657
	0.968477
	2.864869
	0.794528
	-2.353295
	-2.260845
	0.967833
	2.865836
	0.794850
	-2.355227
	-2.261811
	0.973309
	2.865836
	0.795172
	-2.356838
	-2.261811
	0.972987
	2.865514
	0.792595
	-2.358127
	-2.258590
	0.972343
	2.864869
	0.792917
	-2.357482
	-2.257301
	0.973632
	2.863581
	0.792917
	-2.355550
	-2.256335
	0.972343
	2.863903
	0.791306
	-2.354905
	-2.255046
	0.970410
	2.862292
	0.792595
	-2.354905
	-2.257301
	0.968155
	2.863903
	0.795494
	-2.352328
	-2.259878
	0.966867
	2.866480
	0.794850
	-2.353617
	-2.261489
	0.968800
	2.866480
	0.793561
	-2.355872
	-2.261489
	0.971055
	2.865192
	0.793561
	-2.357482
	-2.259234
	0.973309
	2.864869
	0.791628
	-2.355872
	-2.257946
	0.971055
	2.862937
	0.792917
	-2.354583
	-2.255691
	0.972021
	2.861970
	0.795172
	-2.352973
	-2.255691
	0.969766
	2.861326
	0.793883
	-2.353617
	-2.256013
	0.967833
	2.863259
	0.794850
	-2.352973
	-2.256979
	0.968155
	2.864547
	0.796460
	-2.353295
	-2.259878
	0.967833
	2.866158
	0.795172
	-2.353617
	-2.261167
	0.967833
	2.866480
	0.792917
	-2.355227
	-2.261167
	0.971377
	2.866158
	0.793239
	-2.356838
	-2.258912
	0.973954
	2.866158
	0.792917
	-2.355550
	-2.258590
	0.972343
	2.863259
	0.791306
	-2.353295
	-2.256979
	0.970732
	2.860360
	0.794528
	-2.353617
	-2.257623
	0.967833
	2.862937
	0.797105
	-2.352650
	-2.259234
	0.966545
	2.868091
	0.797427
	-2.354905
	-2.259556
	0.967833
	2.866480
	0.794850
	-2.357804
	-2.261167
	0.971055
	2.866480
	0.792917
	-2.356838
	-2.259234
	0.970088
	2.866802
	0.791951
	-2.354583
	-2.256979
	0.971377
	2.865836
	0.792595
	-2.353939
	-2.256657
	0.971377
	2.861326
	0.792917
	-2.352328
	-2.257301
	0.969766
	2.862614
	0.795494
	-2.353295
	-2.257946
	0.965900
	2.862937
	0.797105
	-2.353617
	-2.258912
	0.966867
	2.866158
	0.798393
	-2.352006
	-2.260845
	0.966867
	2.866158
	0.796138
	-2.352328
	-2.259878
	0.968477
	2.867769
	0.796138
	-2.354583
	-2.261167
	0.971055
	2.865514
	0.795172
	-2.354905
	-2.260523
	0.973309
	2.866802
	0.795172
	-2.356194
	-2.258912
	0.973309
	2.865514
	0.794850
	-2.357160
	-2.258590
	0.971699
	2.863581
	0.793883
	-2.353939
	-2.256657
	0.972021
	2.863903
	0.793561
	-2.354261
	-2.258590
	0.967189
	2.862614
	0.797749
	-2.352650
	-2.258268
	0.966545
	2.864869
	0.795494
	-2.355227
	-2.262777
	0.967833
	2.867769
	0.794528
	-2.355227
	-2.261167
	0.970732
	2.867446
	0.794528
	-2.356838
	-2.259556
	0.972343
	2.866802
	0.795494
	-2.355227
	-2.259234
	0.971699
	2.864869
	0.793883
	-2.355872
	-2.257946
	0.971055
	2.864869
	0.793883
	-2.356194
	-2.258590
	0.969444
	2.863581
	0.793561
	-2.353939
	-2.257301
	0.969122
	2.863903
	0.795172
	-2.351362
	-2.256657
	0.967189
	2.863581
	0.796138
	-2.352973
	-2.259234
	0.966545
	2.864869
	0.794850
	-2.352328
	-2.262455
	0.967511
	2.867446
	0.797427
	-2.354261
	-2.262133
	0.970410
	2.866480
	0.798393
	-2.355550
	-2.259234
	0.971055
	2.865192
	0.794528
	-2.356516
	-2.259878
	0.969122
	2.864547
	0.792273
	-2.352650
	-2.257946
	0.967833
	2.863259
	0.795494
	-2.350718
	-2.257623
	0.967833
	2.864869
	0.797105
	-2.352006
	-2.261167
	0.967189
	2.867124
	0.796783
	-2.352328
	-2.262133
	0.969766
	2.867124
	0.796783
	-2.355550
	-2.261489
	0.972021
	2.865836
	0.796138
	-2.354905
	-2.258268
	0.973632
	2.865514
	0.795172
	-2.355227
	-2.256657
	0.972021
	2.864225
	0.796138
	-2.353617
	-2.257301
	0.968477
	2.861004
	0.795172
	-2.352650
	-2.258590
	0.965578
	2.863581
	0.798393
	-2.352328
	-2.257623
	0.965900
	2.865514
	0.799037
	-2.353939
	-2.259878
	0.965578
	2.865836
	0.799037
	-2.352650
	-2.260200
	0.966545
	2.867446
	0.796138
	-2.354583
	-2.261489
	0.969122
	2.868413
	0.797105
	-2.355872
	-2.260523
	0.970732
	2.867124
	0.795494
	-2.352973
	-2.258912
	0.970410
	2.864869
	0.793239
	-2.353939
	-2.257623
	0.969444
	2.863581
	0.795494
	-2.352328
	-2.257301
	0.969766
	2.861004
	0.795172
	-2.352650
	-2.258912
	0.967511
	2.862614
	0.799037
	-2.351684
	-2.257946
	0.963968
	2.863259
	0.796783
	-2.353617
	-2.260200
	0.965256
	2.864225
	0.797427
	-2.352973
	-2.263744
	0.966867
	2.867769
	0.797105
	-2.354261
	-2.263100
	0.969766
	2.867769
	0.797427
	-2.354583
	-2.260523
	0.969766
	2.865514
	0.792917
	-2.354583
	-2.259556
	0.969444
	2.864547
	0.792917
	-2.352328
	-2.258590
	0.968800
	2.863259
	0.796783
	-2.351040
	-2.258590
	0.967189
	2.863581
	0.799037
	-2.351362
	-2.260845
	0.966545
	2.865836
	0.798715
	-2.353295
	-2.263100
	0.967833
	2.866158
	0.799360
	-2.356194
	-2.260845
	0.971055
	2.866480
	0.796138
	-2.356838
	-2.258268
	0.969444
	2.866158
	0.795172
	-2.352973
	-2.256335
	0.968155
	2.863581
	0.794205
	-2.352328
	-2.257623
	0.966867
	2.861970
	0.794850
	-2.351362
	-2.259556
	0.966223
	2.864547
	0.796783
	-2.351684
	-2.261167
	0.964934
	2.864547
	0.799360
	-2.350396
	-2.261811
	0.966223
	2.865192
	0.800326
	-2.351362
	-2.262133
	0.966545
	2.865514
	0.798715
	-2.353939
	-2.262133
	0.969444
	2.866480
	0.799037
	-2.354905
	-2.260845
	0.970410
	2.865514
	0.797105
	-2.355872
	-2.259878
	0.968477
	2.864547
	0.794850
	-2.353939
	-2.259234
	0.968155
	2.862292
	0.797427
	-2.352328
	-2.259556
	0.966867
	2.861326
	0.799360
	-2.351040
	-2.259878
	0.965900
	2.865192
	0.800326
	-2.352328
	-2.261167
	0.963968
	2.866158
	0.800004
	-2.353617
	-2.262455
	0.966545
	2.866480
	0.798715
	-2.354905
	-2.263422
	0.968155
	2.868413
	0.797427
	-2.355227
	-2.260845
	0.968800
	2.869379
	0.798393
	-2.355227
	-2.261489
	0.968155
	2.866802
	0.796783
	-2.353939
	-2.263100
	0.968477
	2.865192
	0.795494
	-2.354583
	-2.261167
	0.969766
	2.864869
	0.796460
	-2.355550
	-2.258590
	0.970732
	2.865192
	0.796138
	-2.353617
	-2.257946
	0.967833
	2.864225
	0.796783
	-2.352006
	-2.256979
	0.968155
	2.864869
	0.797105
	-2.351362
	-2.257623
	0.965900
	2.863903
	0.799037
	-2.350073
	-2.261489
	0.965256
	2.868735
	0.800326
	-2.350073
	-2.262777
	0.967189
	2.867124
	0.797427
	-2.355227
	-2.262777
	0.967833
	2.867124
	0.796783
	-2.354905
	-2.261167
	0.969444
	2.866158
	0.794528
	-2.351362
	-2.259234
	0.969766
	2.865514
	0.796460
	-2.349751
	-2.259234
	0.969444
	2.861326
	0.797427
	-2.350396
	-2.258912
	0.966545
	2.860360
	0.799360
	-2.352006
	-2.260523
	0.964290
	2.864547
	0.800970
	-2.352328
	-2.262777
	0.966545
	2.866158
	0.800326
	-2.354261
	-2.260523
	0.969122
	2.865514
	0.796138
	-2.352650
	-2.258590
	0.966867
	2.863903
	0.797427
	-2.350396
	-2.257623
	0.965256
	2.862292
	0.798393
	-2.351040
	-2.260200
	0.965256
	2.866802
	0.800326
	-2.349429
	-2.261489
	0.963968
	2.867446
	0.799037
	-2.351684
	-2.263422
	0.966545
	2.866802
	0.799037
	-2.352650
	-2.261811
	0.969766
	2.867769
	0.796783
	-2.353295
	-2.260523
	0.968477
	2.863581
	0.796783
	-2.351362
	-2.260200
	0.966545
	2.861326
	0.799360
	-2.352006
	-2.260523
	0.964934
	2.862292
	0.800648
	-2.350718
	-2.260845
	0.964612
	2.866158
	0.800970
	-2.352328
	-2.262455
	0.965256
	2.867124
	0.801937
	-2.353617
	-2.263422
	0.966867
	2.865514
	0.799682
	-2.354583
	-2.261489
	0.967511
	2.866158
	0.797427
	-2.353939
	-2.258912
	0.966223
	2.863581
	0.797427
	-2.352328
	-2.259234
	0.968155
	2.862937
	0.798393
	-2.349751
	-2.259556
	0.963968
	2.862292
	0.801292
	-2.350073
	-2.259556
	0.962357
	2.864547
	0.801614
	-2.351684
	-2.262133
	0.963968
	2.866480
	0.800326
	-2.351362
	-2.263744
	0.966545
	2.868413
	0.800970
	-2.353617
	-2.263422
	0.966867
	2.867446
	0.798715
	-2.352973
	-2.261167
	0.967511
	2.863903
	0.795816
	-2.351362
	-2.260845
	0.968800
	2.864225
	0.796783
	-2.350718
	-2.259556
	0.967511
	2.862937
	0.800004
	-2.350396
	-2.258268
	0.965256
	2.861970
	0.801937
	-2.349429
	-2.259234
	0.964290
	2.866480
	0.800004
	-2.351684
	-2.261489
	0.963323
	2.868091
	0.800648
	-2.350718
	-2.263744
	0.966545
	2.869057
	0.801614
	-2.352006
	-2.263744
	0.968800
	2.866480
	0.798071
	-2.354261
	-2.260200
	0.968477
	2.864869
	0.799360
	-2.352006
	-2.260523
	0.965578
	2.861970
	0.798393
	-2.349751
	-2.260523
	0.963001
	2.865192
	0.800648
	-2.350073
	-2.264066
	0.961713
	2.866158
	0.800326
	-2.351362
	-2.264388
	0.964934
	2.866158
	0.799037
	-2.352973
	-2.265354
	0.968155
	2.865514
	0.796783
	-2.352973
	-2.260845
	0.967833
	2.864225
	0.798715
	-2.351362
	-2.259234
	0.963968
	2.860037
	0.798715
	-2.351684
	-2.262777
	0.960424
	2.863581
	0.800648
	-2.349429
	-2.263744
	0.962357
	2.866480
	0.801292
	-2.352650
	-2.264388
	0.966867
	2.865836
	0.800970
	-2.354261
	-2.261811
	0.966545
	2.866480
	0.796783
	-2.353617
	-2.259878
	0.965256
	2.863903
	0.796460
	-2.351684
	-2.260523
	0.965578
	2.862292
	0.798071
	-2.349751
	-2.261167
	0.964612
	2.863259
	0.801937
	-2.350396
	-2.262455
	0.963968
	2.866802
	0.801937
	-2.352650
	-2.264066
	0.963646
	2.866480
	0.799037
	-2.353617
	-2.264710
	0.965256
	2.867124
	0.798393
	-2.352650
	-2.264066
	0.967511
	2.868091
	0.799037
	-2.352650
	-2.260523
	0.967833
	2.865192
	0.798071
	-2.353295
	-2.262455
	0.966545
	2.862292
	0.798393
	-2.349751
	-2.261489
	0.964612
	2.862292
	0.799682
	-2.350718
	-2.259556
	0.964612
	2.862614
	0.801292
	-2.351684
	-2.261489
	0.963001
	2.862292
	0.801614
	-2.349429
	-2.262133
	0.960746
	2.862937
	0.800326
	-2.351684
	-2.261489
	0.961713
	2.863259
	0.800970
	-2.350718
	-2.259556
	0.962357
	2.861648
	0.800004
	-2.349107
	-2.260845
	0.962679
	2.864547
	0.801292
	-2.349107
	-2.261811
	0.960746
	2.863259
	0.801614
	-2.348463
	-2.262455
	0.961713
	2.863259
	0.801614
	-2.350073
	-2.264710
	0.962357
	2.865192
	0.801937
	-2.350073
	-2.264066
	0.963001
	2.865192
	0.803547
	-2.352328
	-2.265032
	0.964612
	2.864869
	0.801614
	-2.353617
	-2.263422
	0.964934
	2.868413
	0.799682
	-2.352650
	-2.261489
	0.966223
	2.868413
	0.799682
	-2.351362
	-2.261489
	0.966867
	2.865192
	0.797105
	-2.350718
	-2.261489
	0.966223
	2.862937
	0.796783
	-2.350396
	-2.260845
	0.963968
	2.861648
	0.800004
	-2.350073
	-2.260200
	0.963646
	2.862937
	0.801937
	-2.350073
	-2.261811
	0.961068
	2.864547
	0.802259
	-2.349107
	-2.263744
	0.961068
	2.866158
	0.801614
	-2.349751
	-2.265677
	0.963968
	2.867124
	0.801614
	-2.350073
	-2.264710
	0.966545
	2.867446
	0.801614
	-2.353617
	-2.262777
	0.965578
	2.865192
	0.800648
	-2.352650
	-2.260845
	0.964934
	2.864547
	0.799682
	-2.349751
	-2.259556
	0.965578
	2.864547
	0.797749
	-2.349751
	-2.259878
	0.964290
	2.865514
	0.800970
	-2.347496
	-2.260523
	0.963968
	2.862937
	0.800004
	-2.347174
	-2.261811
	0.963001
	2.863903
	0.802259
	-2.347819
	-2.262777
	0.961391
	2.863581
	0.803225
	-2.349751
	-2.264388
	0.964612
	2.866802
	0.803225
	-2.350718
	-2.265677
	0.965578
	2.867124
	0.801292
	-2.352973
	-2.263422
	0.963968
	2.864225
	0.800004
	-2.352973
	-2.260523
	0.965900
	2.862937
	0.799360
	-2.350396
	-2.261811
	0.965256
	2.863259
	0.801292
	-2.349107
	-2.260523
	0.962035
	2.863259
	0.802581
	-2.350396
	-2.261811
	0.960424
	2.862614
	0.802903
	-2.349429
	-2.261167
	0.961713
	2.864869
	0.802581
	-2.348463
	-2.262455
	0.961391
	2.868735
	0.804514
	-2.348141
	-2.263744
	0.961713
	2.866480
	0.802259
	-2.352006
	-2.264388
	0.963968
	2.866802
	0.801614
	-2.352973
	-2.262133
	0.965256
	2.866480
	0.799037
	-2.350718
	-2.260200
	0.964934
	2.862937
	0.802581
	-2.348463
	-2.260523
	0.961068
	2.863903
	0.803225
	-2.349429
	-2.263422
	0.959136
	2.866480
	0.803547
	-2.350396
	-2.264388
	0.963323
	2.868413
	0.802903
	-2.352328
	-2.262777
	0.964934
	2.867124
	0.799682
	-2.351684
	-2.260523
	0.964290
	2.866158
	0.799037
	-2.348785
	-2.261489
	0.962679
	2.862937
	0.801937
	-2.347819
	-2.262777
	0.963001
	2.864225
	0.802903
	-2.347496
	-2.263100
	0.961391
	2.864547
	0.803869
	-2.347496
	-2.263744
	0.962357
	2.863903
	0.803869
	-2.348463
	-2.265354
	0.961713
	2.864547
	0.805158
	-2.348785
	-2.265354
	0.961713
	2.865836
	0.804514
	-2.350396
	-2.263744
	0.963646
	2.868413
	0.805480
	-2.349751
	-2.265032
	0.963001
	2.867769
	0.803225
	-2.349751
	-2.265032
	0.962679
	2.867446
	0.802259
	-2.351684
	-2.265999
	0.961713
	2.867124
	0.803547
	-2.351040
	-2.265354
	0.964934
	2.867769
	0.801614
	-2.351362
	-2.266643
	0.964612
	2.867446
	0.799360
	-2.352006
	-2.263744
	0.964290
	2.865514
	0.801614
	-2.352973
	-2.264388
	0.965578
	2.864547
	0.800648
	-2.352328
	-2.263422
	0.965256
	2.865514
	0.799682
	-2.354261
	-2.263100
	0.961713
	2.864547
	0.801292
	-2.353295
	-2.262777
	0.962679
	2.864869
	0.800970
	-2.351684
	-2.261811
	0.962679
	2.866802
	0.798393
	-2.352328
	-2.261489
	0.963968
	2.868091
	0.800970
	-2.351040
	-2.262777
	0.963646
	2.866158
	0.800326
	-2.350718
	-2.262455
	0.965256
	2.866802
	0.800004
	-2.350718
	-2.262777
	0.964290
	2.866158
	0.801292
	-2.349751
	-2.261811
	0.964612
	2.863903
	0.800326
	-2.349751
	-2.263100
	0.964934
	2.863581
	0.799682
	-2.348785
	-2.262455
	0.963001
	2.862614
	0.800648
	-2.349429
	-2.261489
	0.964612
	2.862614
	0.801292
	-2.349107
	-2.261811
	0.962679
	2.862937
	0.803547
	-2.347174
	-2.261811
	0.958814
	2.862937
	0.803869
	-2.350073
	-2.263744
	0.957847
	2.864869
	0.804514
	-2.348141
	-2.265032
	0.960746
	2.866480
	0.802259
	-2.348463
	-2.266643
	0.960746
	2.868735
	0.803869
	-2.348463
	-2.266965
	0.960746
	2.865514
	0.804836
	-2.350718
	-2.266965
	0.963968
	2.866158
	0.803547
	-2.352328
	-2.265677
	0.965578
	2.866480
	0.803547
	-2.352650
	-2.263422
	0.964612
	2.867769
	0.805158
	-2.352328
	-2.261811
	0.964612
	2.866480
	0.801614
	-2.351684
	-2.262777
	0.962357
	2.865514
	0.799037
	-2.351362
	-2.262455
	0.963001
	2.865836
	0.800648
	-2.349107
	-2.263422
	0.963323
	2.864225
	0.799037
	-2.348785
	-2.264388
	0.962357
	2.862292
	0.800648
	-2.348463
	-2.264388
	0.961068
	2.861326
	0.802259
	-2.347496
	-2.262777
	0.961713
	2.861648
	0.804191
	-2.347496
	-2.264066
	0.960746
	2.863259
	0.804836
	-2.348141
	-2.265032
	0.959458
	2.863259
	0.805158
	-2.350396
	-2.266643
	0.959136
	2.864225
	0.805158
	-2.349751
	-2.267287
	0.960746
	2.866480
	0.803225
	-2.352328
	-2.263100
	0.963001
	2.867124
	0.801614
	-2.352973
	-2.263422
	0.961391
	2.863581
	0.799682
	-2.350073
	-2.263100
	0.961391
	2.863581
	0.799360
	-2.348463
	-2.265032
	0.962357
	2.863903
	0.800970
	-2.347496
	-2.262777
	0.963001
	2.862614
	0.804514
	-2.348141
	-2.263744
	0.960102
	2.860682
	0.804836
	-2.348785
	-2.264710
	0.959136
	2.863903
	0.806446
	-2.348785
	-2.265677
	0.958491
	2.864547
	0.806124
	-2.349751
	-2.266321
	0.959780
	2.866480
	0.804514
	-2.350718
	-2.267931
	0.960102
	2.867446
	0.802259
	-2.352006
	-2.266321
	0.961391
	2.866480
	0.802581
	-2.350396
	-2.263100
	0.963646
	2.863903
	0.801614
	-2.349429
	-2.263744
	0.963968
	2.864225
	0.803869
	-2.346208
	-2.263422
	0.958814
	2.860360
	0.804836
	-2.349107
	-2.264066
	0.957203
	2.863259
	0.806446
	-2.349429
	-2.266965
	0.958169
	2.865836
	0.804836
	-2.350718
	-2.266965
	0.960746
	2.868735
	0.805802
	-2.350396
	-2.266965
	0.959458
	2.867769
	0.803869
	-2.351362
	-2.268254
	0.960424
	2.865514
	0.801614
	-2.351362
	-2.265677
	0.962035
	2.865514
	0.799682
	-2.349751
	-2.265032
	0.962035
	2.863259
	0.801292
	-2.348785
	-2.265032
	0.962035
	2.860360
	0.802581
	-2.347819
	-2.265354
	0.959136
	2.861004
	0.805802
	-2.348141
	-2.263744
	0.956237
	2.862937
	0.805802
	-2.348785
	-2.264388
	0.956881
	2.863903
	0.805480
	-2.346852
	-2.265677
	0.957525
	2.866158
	0.805158
	-2.348463
	-2.268898
	0.958169
	2.865514
	0.805158
	-2.349751
	-2.268576
	0.961391
	2.865836
	0.806124
	-2.351040
	-2.267287
	0.961713
	2.867446
	0.806446
	-2.351040
	-2.265354
	0.963001
	2.866480
	0.806446
	-2.351362
	-2.263744
	0.961391
	2.865514
	0.803547
	-2.351362
	-2.262777
	0.962357
	2.866802
	0.801937
	-2.349107
	-2.262777
	0.961391
	2.866802
	0.802259
	-2.347174
	-2.262777
	0.961068
	2.864869
	0.801614
	-2.346530
	-2.264066
	0.959780
	2.863581
	0.804191
	-2.345564
	-2.264066
	0.960102
	2.863259
	0.804191
	-2.345886
	-2.263422
	0.960102
	2.862937
	0.806124
	-2.346208
	-2.264710
	0.958491
	2.863581
	0.806769
	-2.347496
	-2.267287
	0.958814
	2.866480
	0.806124
	-2.351362
	-2.267609
	0.958491
	2.866480
	0.807091
	-2.350073
	-2.264066
	0.960746
	2.866480
	0.803869
	-2.349751
	-2.265032
	0.962035
	2.867446
	0.801937
	-2.348141
	-2.263744
	0.960746
	2.864225
	0.801292
	-2.347496
	-2.264066
	0.962357
	2.863903
	0.802903
	-2.346852
	-2.263744
	0.962357
	2.862614
	0.803225
	-2.346208
	-2.264710
	0.960424
	2.861004
	0.804191
	-2.348141
	-2.264388
	0.960102
	2.861648
	0.807091
	-2.347174
	-2.264066
	0.958491
	2.861970
	0.804836
	-2.348463
	-2.264388
	0.957847
	2.866802
	0.807735
	-2.347819
	-2.267609
	0.957847
	2.867446
	0.806446
	-2.348463
	-2.267931
	0.960424
	2.867124
	0.804836
	-2.351684
	-2.267609
	0.960102
	2.868413
	0.804514
	-2.350073
	-2.265999
	0.962035
	2.867769
	0.802903
	-2.349107
	-2.265032
	0.961391
	2.867124
	0.803225
	-2.349107
	-2.265677
	0.960102
	2.866158
	0.803547
	-2.348463
	-2.263744
	0.961068
	2.864869
	0.801614
	-2.349107
	-2.265032
	0.961713
	2.865192
	0.802581
	-2.347174
	-2.265032
	0.959780
	2.863581
	0.802259
	-2.347496
	-2.264710
	0.960746
	2.861970
	0.805480
	-2.346208
	-2.264388
	0.960424
	2.861326
	0.806769
	-2.345886
	-2.265032
	0.957525
	2.864869
	0.807091
	-2.347174
	-2.265999
	0.954948
	2.863581
	0.807735
	-2.349751
	-2.268576
	0.956881
	2.866480
	0.807413
	-2.349107
	-2.267609
	0.959136
	2.866480
	0.803225
	-2.350396
	-2.263744
	0.961068
	2.866802
	0.802259
	-2.347174
	-2.264388
	0.960102
	2.863581
	0.803547
	-2.345242
	-2.266321
	0.957525
	2.861970
	0.805802
	-2.346852
	-2.266965
	0.958491
	2.865192
	0.808057
	-2.348141
	-2.267287
	0.958814
	2.865514
	0.807735
	-2.349107
	-2.268576
	0.958814
	2.866802
	0.808379
	-2.350396
	-2.268254
	0.957847
	2.867124
	0.806446
	-2.349751
	-2.265677
	0.960746
	2.866802
	0.804191
	-2.349751
	-2.264710
	0.960746
	2.866158
	0.802581
	-2.346208
	-2.265032
	0.959458
	2.863259
	0.803869
	-2.345886
	-2.265677
	0.956881
	2.861326
	0.807091
	-2.346852
	-2.266643
	0.956559
	2.863259
	0.808379
	-2.346530
	-2.268576
	0.957847
	2.867446
	0.807413
	-2.350396
	-2.267287
	0.957847
	2.867446
	0.804836
	-2.350718
	-2.265354
	0.959136
	2.865192
	0.803225
	-2.347819
	-2.266643
	0.958814
	2.861970
	0.804191
	-2.345242
	-2.263422
	0.959458
	2.861970
	0.808057
	-2.346530
	-2.266965
	0.955270
	2.864547
	0.808379
	-2.345886
	-2.267931
	0.955270
	2.867446
	0.807091
	-2.346530
	-2.268254
	0.957203
	2.867769
	0.807413
	-2.347819
	-2.269220
	0.960424
	2.866802
	0.806769
	-2.349751
	-2.270186
	0.959458
	2.865836
	0.806769
	-2.350718
	-2.268576
	0.959458
	2.866802
	0.806769
	-2.351362
	-2.266321
	0.958814
	2.864547
	0.804514
	-2.351040
	-2.265354
	0.959458
	2.866802
	0.804191
	-2.348785
	-2.265354
	0.957847
	2.866480
	0.803547
	-2.349429
	-2.265032
	0.960102
	2.865836
	0.803225
	-2.347174
	-2.266965
	0.958169
	2.862292
	0.804514
	-2.344919
	-2.264710
	0.959136
	2.863903
	0.807735
	-2.345886
	-2.265999
	0.955914
	2.861004
	0.809023
	-2.346530
	-2.265677
	0.955914
	2.863259
	0.809023
	-2.346208
	-2.267609
	0.953660
	2.866480
	0.807735
	-2.345886
	-2.268576
	0.955592
	2.868413
	0.809346
	-2.345886
	-2.270508
	0.959136
	2.865514
	0.807413
	-2.349107
	-2.270186
	0.957525
	2.867446
	0.809346
	-2.348463
	-2.268254
	0.956881
	2.865836
	0.807735
	-2.349107
	-2.268576
	0.959136
	2.867769
	0.807413
	-2.347496
	-2.269864
	0.958814
	2.864869
	0.805802
	-2.350718
	-2.267287
	0.960102
	2.864225
	0.805802
	-2.349107
	-2.264710
	0.959136
	2.863259
	0.805480
	-2.345886
	-2.264066
	0.955914
	2.863259
	0.806769
	-2.346208
	-2.268254
	0.954626
	2.866802
	0.809023
	-2.347174
	-2.270186
	0.957847
	2.866158
	0.809023
	-2.348785
	-2.268898
	0.960424
	2.865514
	0.806124
	-2.351040
	-2.265999
	0.958169
	2.866480
	0.805480
	-2.348785
	-2.263422
	0.958169
	2.864225
	0.803869
	-2.346852
	-2.266965
	0.956881
	2.861970
	0.806124
	-2.344275
	-2.266321
	0.956559
	2.862614
	0.808057
	-2.346852
	-2.267287
	0.953982
	2.864225
	0.810956
	-2.347174
	-2.268576
	0.955592
	2.865514
	0.809023
	-2.347496
	-2.269864
	0.955592
	2.867124
	0.808379
	-2.349751
	-2.268898
	0.955592
	2.866802
	0.807091
	-2.350073
	-2.267287
	0.958491
	2.866158
	0.804514
	-2.348785
	-2.267609
	0.958814
	2.864869
	0.805158
	-2.345564
	-2.266321
	0.957203
	2.861004
	0.808701
	-2.346530
	-2.267931
	0.954626
	2.864547
	0.809023
	-2.346852
	-2.269220
	0.955592
	2.866480
	0.807735
	-2.348463
	-2.269542
	0.956881
	2.867446
	0.806124
	-2.348141
	-2.267931
	0.957847
	2.864547
	0.804514
	-2.349429
	-2.267931
	0.959136
	2.864869
	0.805158
	-2.347174
	-2.265677
	0.958814
	2.864225
	0.806124
	-2.347496
	-2.265354
	0.956881
	2.862292
	0.805158
	-2.345564
	-2.265677
	0.956881
	2.863581
	0.806446
	-2.344919
	-2.266643
	0.954948
	2.861326
	0.808057
	-2.344597
	-2.265999
	0.955270
	2.862614
	0.811278
	-2.345564
	-2.267287
	0.953660
	2.865192
	0.809668
	-2.346852
	-2.268898
	0.952693
	2.868413
	0.807735
	-2.347496
	-2.270831
	0.955914
	2.866480
	0.808057
	-2.349107
	-2.268254
	0.959136
	2.865836
	0.806124
	-2.348785
	-2.266321
	0.955914
	2.863581
	0.804191
	-2.346208
	-2.265354
	0.955270
	2.863259
	0.806769
	-2.344597
	-2.267609
	0.954304
	2.861648
	0.808701
	-2.345242
	-2.267609
	0.953660
	2.863581
	0.810312
	-2.346530
	-2.268254
	0.952049
	2.865192
	0.809668
	-2.345886
	-2.270508
	0.952371
	2.866158
	0.809023
	-2.345564
	-2.271475
	0.953660
	2.864869
	0.808379
	-2.345564
	-2.270186
	0.954626
	2.866158
	0.811278
	-2.347496
	-2.270508
	0.954304
	2.866158
	0.810312
	-2.347819
	-2.270508
	0.956881
	2.867446
	0.807091
	-2.347819
	-2.268576
	0.957203
	2.864547
	0.806446
	-2.347819
	-2.265999
	0.959780
	2.863903
	0.806769
	-2.346530
	-2.267287
	0.956559
	2.861970
	0.807413
	-2.345242
	-2.266643
	0.952049
	2.861970
	0.809346
	-2.344919
	-2.266965
	0.952371
	2.863259
	0.808379
	-2.345242
	-2.269864
	0.952371
	2.865192
	0.809023
	-2.345886
	-2.269864
	0.955592
	2.866480
	0.809990
	-2.350396
	-2.270186
	0.955592
	2.864547
	0.807413
	-2.349751
	-2.266965
	0.956881
	2.866158
	0.805802
	-2.349751
	-2.267287
	0.955914
	2.866802
	0.805802
	-2.347496
	-2.265354
	0.957203
	2.864547
	0.806124
	-2.346208
	-2.267931
	0.955914
	2.864869
	0.805802
	-2.344597
	-2.267609
	0.955270
	2.862614
	0.807735
	-2.344919
	-2.267287
	0.953982
	2.862614
	0.808379
	-2.343309
	-2.269220
	0.952693
	2.861648
	0.808057
	-2.344919
	-2.271153
	0.952049
	2.863259
	0.810312
	-2.345886
	-2.271153
	0.953015
	2.863581
	0.809990
	-2.347819
	-2.271153
	0.954304
	2.865836
	0.808701
	-2.350073
	-2.271475
	0.953660
	2.865192
	0.809023
	-2.349429
	-2.269220
	0.955270
	2.865514
	0.807091
	-2.349429
	-2.269864
	0.955592
	2.865836
	0.807413
	-2.347174
	-2.267931
	0.956237
	2.865836
	0.806124
	-2.348141
	-2.269542
	0.956559
	2.864225
	0.806769
	-2.348785
	-2.269864
	0.957203
	2.863903
	0.805158
	-2.348463
	-2.268576
	0.956881
	2.865514
	0.808057
	-2.348785
	-2.266965
	0.956237
	2.863903
	0.806124
	-2.348141
	-2.268576
	0.954948
	2.863581
	0.805802
	-2.346852
	-2.268254
	0.956237
	2.864547
	0.806769
	-2.343631
	-2.267287
	0.955592
	2.861648
	0.805480
	-2.346852
	-2.267287
	0.957525
	2.862614
	0.806446
	-2.344919
	-2.268576
	0.954626
	2.862937
	0.807735
	-2.345242
	-2.266321
	0.954626
	2.863903
	0.807091
	-2.346208
	-2.268254
	0.954304
	2.862937
	0.805802
	-2.345564
	-2.268898
	0.955270
	2.862937
	0.806446
	-2.344597
	-2.268576
	0.954626
	2.861648
	0.808379
	-2.345242
	-2.269220
	0.954626
	2.861648
	0.808379
	-2.345564
	-2.267609
	0.953660
	2.861970
	0.809990
	-2.344919
	-2.266643
	0.952693
	2.863903
	0.811923
	-2.343953
	-2.268576
	0.951405
	2.862937
	0.809668
	-2.344275
	-2.270186
	0.951727
	2.863903
	0.810956
	-2.343953
	-2.270508
	0.953015
	2.863259
	0.812889
	-2.345564
	-2.270508
	0.953982
	2.866158
	0.811923
	-2.345886
	-2.271153
	0.953337
	2.867769
	0.809990
	-2.347174
	-2.272441
	0.954948
	2.866158
	0.809023
	-2.346208
	-2.269864
	0.957847
	2.865836
	0.809023
	-2.346208
	-2.265999
	0.956559
	2.864869
	0.808701
	-2.347174
	-2.266321
	0.954948
	2.862937
	0.809668
	-2.344275
	-2.267287
	0.953337
	2.863259
	0.808701
	-2.342987
	-2.266643
	0.954304
	2.863259
	0.811600
	-2.343631
	-2.267931
	0.953660
	2.863903
	0.813533
	-2.344919
	-2.270186
	0.953015
	2.866158
	0.812245
	-2.345564
	-2.270831
	0.951405
	2.868091
	0.811600
	-2.345564
	-2.271153
	0.953015
	2.867446
	0.811600
	-2.344597
	-2.271797
	0.956237
	2.867124
	0.810634
	-2.347496
	-2.272119
