LabVIEW Measurement	
Writer_Version	2
Reader_Version	2
Separator	Tab
Decimal_Separator	.
Multi_Headings	No
X_Columns	No
Time_Pref	Absolute
Operator	orzr
Date	2022/04/28
Time	13:20:33.4319157499427109712
***End_of_Header***	
	
Channels	1	
Samples	20000	
Date	2022/04/28	
Time	13:20:33.4319157499427109712	
Y_Unit_Label	Volts	
X_Dimension	Time	
X0	0.0000000000000000E+0	
Delta_X	0.001000	
***End_of_Header***		
X_Value	Voltage	Comment
	-0.122571
	-0.115162
	-0.111941
	-0.106787
	-0.108720
	-0.105499
	-0.105499
	-0.105499
	-0.110008
	-0.106465
	-0.112263
	-0.110331
	-0.113874
	-0.110975
	-0.113552
	-0.113874
	-0.110331
	-0.106787
	-0.104854
	-0.096157
	-0.089392
	-0.084560
	-0.074897
	-0.075863
	-0.073930
	-0.075541
	-0.072642
	-0.076507
	-0.074252
	-0.077151
	-0.076829
	-0.082950
	-0.077474
	-0.082628
	-0.079406
	-0.081017
	-0.077474
	-0.074252
	-0.071675
	-0.062334
	-0.052992
	-0.044294
	-0.039785
	-0.040429
	-0.043328
	-0.038174
	-0.038174
	-0.033664
	-0.038496
	-0.031731
	-0.034631
	-0.032698
	-0.038496
	-0.038818
	-0.044939
	-0.036885
	-0.039140
	-0.033664
	-0.034308
	-0.022712
	-0.012726
	-0.004028
	0.004025
	0.007246
	0.009179
	0.017876
	0.018843
	0.018843
	0.019165
	0.020131
	0.023352
	0.022708
	0.026896
	0.025929
	0.028829
	0.029473
	0.032694
	0.012400
	0.009501
	0.004669
	0.008212
	0.000481
	-0.000163
	-0.007572
	-0.014014
	-0.018202
	-0.023034
	-0.031087
	-0.035919
	-0.041073
	-0.050415
	-0.059434
	-0.072964
	-0.077151
	-0.087782
	-0.091003
	-0.098412
	-0.100345
	-0.106465
	-0.100022
	-0.101633
	-0.095513
	-0.097123
	-0.096479
	-0.105499
	-0.104532
	-0.110975
	-0.113552
	-0.123860
	-0.122249
	-0.133202
	-0.136101
	-0.143510
	-0.145442
	-0.152529
	-0.156073
	-0.162193
	-0.164126
	-0.163159
	-0.156395
	-0.153496
	-0.152851
	-0.146731
	-0.153496
	-0.149630
	-0.152529
	-0.144798
	-0.147053
	-0.144154
	-0.147697
	-0.145120
	-0.148664
	-0.144154
	-0.146087
	-0.140611
	-0.139966
	-0.133202
	-0.124826
	-0.108398
	-0.088748
	-0.064588
	0.040747
	0.140285
	0.322287
	0.463379
	0.675340
	0.819976
	1.011321
	1.126965
	1.249375
	1.312512
	1.359865
	1.374683
	1.378871
	1.368241
	1.313157
	1.272890
	1.181405
	1.124710
	1.027427
	0.965256
	0.877959
	0.823519
	0.751684
	0.695634
	0.612847
	0.550998
	0.470466
	0.405396
	0.324864
	0.255929
	0.186027
	0.118380
	0.052022
	0.001448
	-0.036563
	-0.070387
	-0.096801
	-0.128370
	-0.147053
	-0.182809
	-0.209224
	-0.249490
	-0.282669
	-0.312626
	-0.331310
	-0.359335
	-0.376085
	-0.387360
	-0.386716
	-0.385105
	-0.379951
	-0.367388
	-0.353859
	-0.335820
	-0.321646
	-0.301352
	-0.282669
	-0.270428
	-0.251100
	-0.236282
	-0.219210
	-0.206002
	-0.200526
	-0.196016
	-0.188607
	-0.185064
	-0.178299
	-0.178299
	-0.174756
	-0.174756
	-0.176367
	-0.174434
	-0.171535
	-0.170890
	-0.167347
	-0.167347
	-0.167025
	-0.163159
	-0.157039
	-0.144476
	-0.137711
	-0.131591
	-0.135779
	-0.133202
	-0.132235
	-0.126437
	-0.129980
	-0.125471
	-0.130947
	-0.129336
	-0.135779
	-0.134812
	-0.140611
	-0.138678
	-0.144798
	-0.140288
	-0.145120
	-0.136745
	-0.134490
	-0.124504
	-0.120961
	-0.114196
	-0.120961
	-0.117095
	-0.120961
	-0.116451
	-0.121283
	-0.118384
	-0.121283
	-0.119672
	-0.124182
	-0.124504
	-0.124182
	-0.123538
	-0.125471
	-0.124826
	-0.124504
	-0.121605
	-0.113874
	-0.108720
	-0.101955
	-0.095513
	-0.095835
	-0.095513
	-0.093258
	-0.091325
	-0.086493
	-0.089392
	-0.085527
	-0.091969
	-0.090681
	-0.093258
	-0.090037
	-0.093580
	-0.091969
	-0.096479
	-0.090359
	-0.093258
	-0.081661
	-0.080373
	-0.068454
	-0.064911
	-0.061367
	-0.063944
	-0.060079
	-0.056857
	-0.053314
	-0.057824
	-0.051381
	-0.052348
	-0.052025
	-0.056213
	-0.058146
	-0.060401
	-0.058468
	-0.056213
	-0.054280
	-0.051381
	-0.044294
	-0.032054
	-0.029154
	-0.019491
	-0.024967
	-0.022068
	-0.021423
	-0.016591
	-0.018202
	-0.016269
	-0.016914
	-0.012082
	-0.014337
	-0.010793
	-0.010793
	-0.007894
	-0.003384
	-0.001774
	0.000803
	0.003058
	0.015943
	0.022064
	0.033983
	0.038814
	0.044291
	0.044291
	0.054277
	0.049123
	0.036237
	0.021420
	0.014011
	0.006280
	-0.005639
	-0.018846
	-0.023034
	-0.034631
	-0.037208
	-0.043650
	-0.047516
	-0.051059
	-0.046227
	-0.047516
	-0.049771
	-0.055247
	-0.061367
	-0.067810
	-0.070709
	-0.075541
	-0.081983
	-0.086493
	-0.092614
	-0.100022
	-0.106787
	-0.112263
	-0.112908
	-0.119672
	-0.124182
	-0.128370
	-0.132235
	-0.135134
	-0.129336
	-0.130947
	-0.127081
	-0.125148
	-0.128370
	-0.132557
	-0.136745
	-0.140288
	-0.145765
	-0.147697
	-0.149952
	-0.155428
	-0.161871
	-0.163482
	-0.168313
	-0.168313
	-0.170890
	-0.163159
	-0.163482
	-0.157683
	-0.152207
	-0.143510
	-0.137067
	-0.128048
	-0.130302
	-0.122249
	-0.120639
	-0.112263
	-0.107754
	-0.093580
	-0.078762
	-0.064266
	0.026574
	0.125145
	0.295228
	0.446629
	0.644416
	0.798393
	0.982007
	1.111503
	1.230691
	1.303815
	1.352134
	1.385314
	1.386602
	1.391112
	1.330874
	1.298016
	1.201699
	1.147582
	1.038702
	0.980074
	0.876348
	0.821909
	0.736867
	0.684682
	0.593519
	0.537147
	0.452749
	0.397987
	0.315200
	0.263982
	0.190859
	0.140929
	0.067484
	0.024641
	-0.016914
	-0.045261
	-0.077474
	-0.107431
	-0.142221
	-0.179266
	-0.222753
	-0.250134
	-0.292977
	-0.327444
	-0.351282
	-0.376730
	-0.395091
	-0.400245
	-0.394447
	-0.379307
	-0.368677
	-0.347416
	-0.336786
	-0.315526
	-0.301352
	-0.278481
	-0.264307
	-0.252711
	-0.244658
	-0.235960
	-0.229840
	-0.224041
	-0.217599
	-0.215666
	-0.208257
	-0.206969
	-0.198271
	-0.193117
	-0.179910
	-0.173145
	-0.163482
	-0.158650
	-0.155106
	-0.153818
	-0.147697
	-0.150274
	-0.145120
	-0.151241
	-0.146409
	-0.147053
	-0.145765
	-0.150274
	-0.149630
	-0.157683
	-0.149630
	-0.151885
	-0.144154
	-0.145120
	-0.133524
	-0.129980
	-0.120639
	-0.118706
	-0.120317
	-0.122894
	-0.119994
	-0.122249
	-0.119994
	-0.124182
	-0.122249
	-0.125471
	-0.129336
	-0.132879
	-0.133846
	-0.136745
	-0.135779
	-0.137389
	-0.135134
	-0.132557
	-0.125148
	-0.119028
	-0.114518
	-0.108720
	-0.109364
	-0.105499
	-0.105821
	-0.103888
	-0.106787
	-0.107431
	-0.109364
	-0.108398
	-0.116773
	-0.112263
	-0.114840
	-0.111619
	-0.115807
	-0.110008
	-0.108720
	-0.102599
	-0.095835
	-0.086171
	-0.084238
	-0.073930
	-0.077796
	-0.071353
	-0.075863
	-0.071997
	-0.074574
	-0.073608
	-0.075863
	-0.076507
	-0.081339
	-0.077796
	-0.081017
	-0.078440
	-0.081661
	-0.075863
	-0.072642
	-0.070065
	-0.061045
	-0.050737
	-0.041717
	-0.039140
	-0.042362
	-0.041073
	-0.040429
	-0.034953
	-0.034308
	-0.035275
	-0.032054
	-0.032376
	-0.033342
	-0.037208
	-0.038496
	-0.041395
	-0.038174
	-0.037852
	-0.033664
	-0.033986
	-0.019813
	-0.013048
	-0.000807
	0.003703
	0.007890
	0.011756
	0.018198
	0.019487
	0.020131
	0.019165
	0.025285
	0.021420
	0.027218
	0.021420
	0.029151
	0.026574
	0.032372
	0.033660
	0.015943
	0.008212
	0.008212
	0.008212
	0.003380
	0.001126
	-0.009183
	-0.012726
	-0.020457
	-0.020135
	-0.031087
	-0.031731
	-0.041395
	-0.046871
	-0.062978
	-0.068132
	-0.080051
	-0.083916
	-0.092936
	-0.093580
	-0.101955
	-0.100667
	-0.101633
	-0.094868
	-0.096801
	-0.092614
	-0.098734
	-0.099056
	-0.105177
	-0.107431
	-0.116451
	-0.117739
	-0.126437
	-0.129658
	-0.140933
	-0.141577
	-0.147697
	-0.152529
	-0.158328
	-0.161227
	-0.167669
	-0.160905
	-0.157361
	-0.151885
	-0.150919
	-0.147375
	-0.153496
	-0.150596
	-0.151563
	-0.144476
	-0.145442
	-0.142865
	-0.147375
	-0.144798
	-0.150274
	-0.144798
	-0.147697
	-0.141255
	-0.140933
	-0.133202
	-0.125148
	-0.109042
	-0.087782
	-0.063300
	0.027862
	0.138996
	0.302637
	0.458869
	0.655046
	0.813855
	0.993604
	1.123744
	1.238100
	1.313801
	1.353423
	1.376938
	1.375006
	1.372751
	1.314445
	1.280621
	1.184949
	1.136307
	1.030004
	0.977175
	0.881180
	0.835438
	0.753617
	0.707875
	0.614780
	0.563561
	0.472077
	0.418603
	0.326153
	0.269458
	0.187315
	0.130299
	0.053310
	0.010467
	-0.037208
	-0.063944
	-0.096479
	-0.121283
	-0.146731
	-0.174434
	-0.210190
	-0.242081
	-0.284279
	-0.308439
	-0.335820
	-0.354181
	-0.379307
	-0.384139
	-0.390259
	-0.383494
	-0.384139
	-0.364489
	-0.358691
	-0.333887
	-0.324867
	-0.297164
	-0.286212
	-0.267207
	-0.251744
	-0.231450
	-0.222109
	-0.204714
	-0.205036
	-0.193117
	-0.192473
	-0.181843
	-0.181843
	-0.175078
	-0.175078
	-0.173145
	-0.177011
	-0.173145
	-0.174434
	-0.167025
	-0.169924
	-0.167025
	-0.167025
	-0.163482
	-0.153818
	-0.142865
	-0.139322
	-0.133202
	-0.137711
	-0.133846
	-0.134490
	-0.125793
	-0.128370
	-0.127081
	-0.130302
	-0.128048
	-0.136423
	-0.133846
	-0.140933
	-0.140288
	-0.143188
	-0.141577
	-0.142543
	-0.136101
	-0.132235
	-0.121927
	-0.119672
	-0.113552
	-0.120317
	-0.117739
	-0.118384
	-0.116451
	-0.120961
	-0.117417
	-0.121605
	-0.119672
	-0.128048
	-0.125793
	-0.126115
	-0.123860
	-0.128692
	-0.123216
	-0.126437
	-0.119994
	-0.116129
	-0.105499
	-0.103566
	-0.097768
	-0.097445
	-0.093580
	-0.095191
	-0.088104
	-0.090359
	-0.086493
	-0.089070
	-0.089392
	-0.092291
	-0.093258
	-0.089714
	-0.093258
	-0.092291
	-0.092291
	-0.090359
	-0.090681
	-0.079084
	-0.078440
	-0.068454
	-0.064266
	-0.061367
	-0.062978
	-0.059112
	-0.056857
	-0.054280
	-0.058790
	-0.054280
	-0.055891
	-0.052025
	-0.059757
	-0.057502
	-0.062656
	-0.058468
	-0.059434
	-0.051381
	-0.052992
	-0.038174
	-0.033020
	-0.021423
	-0.023356
	-0.022712
	-0.024323
	-0.019813
	-0.019168
	-0.014981
	-0.019491
	-0.013370
	-0.014981
	-0.012404
	-0.012082
	-0.007572
	-0.007572
	-0.002418
	-0.002418
	0.001126
	0.005313
	0.016266
	0.024641
	0.034949
	0.039459
	0.042036
	0.046546
	0.051700
	0.054277
	0.033660
	0.025607
	0.011434
	0.008212
	-0.007572
	-0.016914
	-0.025611
	-0.030121
	-0.039785
	-0.040429
	-0.048482
	-0.046871
	-0.046871
	-0.044617
	-0.050737
	-0.052670
	-0.065877
	-0.064588
	-0.075219
	-0.072964
	-0.082950
	-0.084882
	-0.094224
	-0.097123
	-0.110331
	-0.110331
	-0.116451
	-0.117739
	-0.126115
	-0.128048
	-0.132235
	-0.132557
	-0.130947
	-0.128692
	-0.127725
	-0.124504
	-0.130947
	-0.132557
	-0.134168
	-0.142865
	-0.143832
	-0.148019
	-0.148664
	-0.155428
	-0.160905
	-0.167025
	-0.165736
	-0.172501
	-0.168313
	-0.168958
	-0.161549
	-0.160582
	-0.148986
	-0.146731
	-0.133846
	-0.132557
	-0.126759
	-0.124182
	-0.118062
	-0.115485
	-0.104854
	-0.095835
	-0.081339
	-0.066521
	0.014977
	0.119669
	0.277511
	0.436320
	0.624121
	0.788729
	0.965578
	1.104738
	1.220705
	1.300916
	1.349557
	1.385314
	1.387891
	1.390146
	1.336994
	1.303493
	1.208464
	1.154668
	1.045466
	0.987805
	0.882791
	0.827063
	0.741376
	0.693379
	0.598029
	0.547133
	0.456615
	0.408617
	0.321965
	0.272357
	0.198590
	0.150271
	0.070061
	0.030761
	-0.016269
	-0.041073
	-0.077796
	-0.103888
	-0.140933
	-0.175400
	-0.222753
	-0.258831
	-0.299419
	-0.327122
	-0.352248
	-0.376085
	-0.396702
	-0.397990
	-0.396379
	-0.378985
	-0.371254
	-0.348060
	-0.340974
	-0.316814
	-0.304251
	-0.279447
	-0.270106
	-0.252711
	-0.248845
	-0.235638
	-0.234027
	-0.222431
	-0.218565
	-0.213089
	-0.210190
	-0.203425
	-0.199238
	-0.189252
	-0.178622
	-0.173145
	-0.163159
	-0.159616
	-0.156073
	-0.153496
	-0.148664
	-0.148342
	-0.148019
	-0.150596
	-0.148019
	-0.148019
	-0.147053
	-0.152207
	-0.150596
	-0.154462
	-0.150596
	-0.148986
	-0.144476
	-0.143188
	-0.130625
	-0.129336
	-0.119350
	-0.121927
	-0.122894
	-0.122571
	-0.121927
	-0.120961
	-0.121605
	-0.123216
	-0.123216
	-0.127081
	-0.131269
	-0.132879
	-0.134812
	-0.136101
	-0.137389
	-0.138034
	-0.135134
	-0.133524
	-0.123860
	-0.118062
	-0.112908
	-0.110331
	-0.110008
	-0.106143
	-0.105499
	-0.104532
	-0.105821
	-0.106143
	-0.110008
	-0.110008
	-0.115807
	-0.112585
	-0.113230
	-0.112263
	-0.113874
	-0.111941
	-0.105499
	-0.098734
	-0.091969
	-0.084560
	-0.080695
	-0.074252
	-0.074574
	-0.072642
	-0.071031
	-0.071353
	-0.073286
	-0.072964
	-0.076829
	-0.075863
	-0.082628
	-0.078762
	-0.080051
	-0.081661
	-0.083594
	-0.076507
	-0.076507
	-0.067488
	-0.062334
	-0.048804
	-0.044294
	-0.040107
	-0.043006
	-0.041395
	-0.041395
	-0.035919
	-0.037530
	-0.035275
	-0.038496
	-0.032698
	-0.039140
	-0.038174
	-0.042040
	-0.043006
	-0.042684
	-0.036563
	-0.037208
	-0.028510
	-0.023034
	-0.008860
	-0.003384
	0.003703
	0.005313
	0.011756
	0.014655
	0.019165
	0.017876
	0.018520
	0.018198
	0.022708
	0.019487
	0.023997
	0.023030
	0.025285
	0.028829
	0.033338
	0.017876
	0.012078
	0.009179
	0.011756
	0.004347
	0.001126
	-0.008216
	-0.010149
	-0.019168
	-0.022712
	-0.030121
	-0.033664
	-0.043650
	-0.047194
	-0.064266
	-0.067810
	-0.080695
	-0.084560
	-0.093258
	-0.095835
	-0.100022
	-0.099700
	-0.098090
	-0.093902
	-0.095191
	-0.093258
	-0.099056
	-0.099700
	-0.105177
	-0.108720
	-0.113552
	-0.118062
	-0.126115
	-0.130625
	-0.141899
	-0.142865
	-0.148342
	-0.152851
	-0.157039
	-0.161227
	-0.166703
	-0.159294
	-0.155428
	-0.151563
	-0.150596
	-0.148342
	-0.153496
	-0.149308
	-0.151885
	-0.144798
	-0.146409
	-0.141255
	-0.147375
	-0.145765
	-0.151885
	-0.146731
	-0.147053
	-0.142865
	-0.142221
	-0.133202
	-0.127725
	-0.106465
	-0.089070
	-0.063300
	0.015943
	0.130943
	0.282343
	0.450816
	0.634430
	0.804514
	0.974598
	1.118268
	1.225859
	1.306070
	1.348913
	1.374361
	1.373717
	1.373717
	1.317022
	1.281910
	1.191713
	1.141783
	1.038057
	0.983940
	0.890844
	0.842203
	0.757161
	0.717217
	0.620578
	0.570326
	0.476587
	0.425046
	0.330662
	0.276867
	0.190859
	0.137708
	0.055565
	0.013689
	-0.034631
	-0.062978
	-0.095513
	-0.115807
	-0.143188
	-0.169280
	-0.206002
	-0.238215
	-0.282347
	-0.306184
	-0.332598
	-0.352892
	-0.378018
	-0.384461
	-0.390903
	-0.384461
	-0.385427
	-0.367066
	-0.357724
	-0.338719
	-0.325512
	-0.302641
	-0.285246
	-0.264630
	-0.250134
	-0.229518
	-0.220498
	-0.205680
	-0.204392
	-0.194084
	-0.190540
	-0.183131
	-0.184742
	-0.176045
	-0.178944
	-0.175722
	-0.181199
	-0.175400
	-0.177011
	-0.171213
	-0.170890
	-0.167347
	-0.170246
	-0.159938
	-0.154784
	-0.142221
	-0.137067
	-0.133846
	-0.136423
	-0.134168
	-0.134490
	-0.128048
	-0.130947
	-0.126759
	-0.132879
	-0.130947
	-0.136101
	-0.136101
	-0.140288
	-0.139966
	-0.144154
	-0.140288
	-0.142221
	-0.134490
	-0.126437
	-0.120961
	-0.116129
	-0.115485
	-0.118062
	-0.116773
	-0.118706
	-0.115485
	-0.121283
	-0.119350
	-0.120961
	-0.123538
	-0.126437
	-0.130302
	-0.125793
	-0.128370
	-0.126115
	-0.126115
	-0.122571
	-0.120639
	-0.109364
	-0.108076
	-0.099700
	-0.101955
	-0.096157
	-0.097123
	-0.093580
	-0.092291
	-0.087782
	-0.089392
	-0.087460
	-0.093580
	-0.092936
	-0.095513
	-0.091003
	-0.095191
	-0.093580
	-0.096479
	-0.091003
	-0.090359
	-0.077796
	-0.078762
	-0.067165
	-0.067810
	-0.061689
	-0.063944
	-0.059757
	-0.057824
	-0.054603
	-0.057824
	-0.053636
	-0.056535
	-0.053636
	-0.061045
	-0.057824
	-0.063622
	-0.061045
	-0.060401
	-0.053314
	-0.051703
	-0.038174
	-0.034308
	-0.021101
	-0.026255
	-0.022390
	-0.025611
	-0.019491
	-0.018524
	-0.016591
	-0.018846
	-0.015625
	-0.015947
	-0.012404
	-0.016269
	-0.010471
	-0.011115
	-0.004351
	-0.004028
	0.001126
	0.003058
	0.017876
	0.021097
	0.036882
	0.034949
	0.043002
	0.043969
	0.050733
	0.053310
	0.037848
	0.023352
	0.015943
	0.006924
	-0.005961
	-0.016914
	-0.026255
	-0.031087
	-0.037852
	-0.042684
	-0.045583
	-0.044939
	-0.043006
	-0.044294
	-0.050415
	-0.054280
	-0.064266
	-0.063944
	-0.071997
	-0.073930
	-0.081661
	-0.084560
	-0.094224
	-0.098734
	-0.109686
	-0.110653
	-0.117417
	-0.118384
	-0.126115
	-0.128692
	-0.131269
	-0.130947
	-0.129014
	-0.126115
	-0.127403
	-0.124826
	-0.130947
	-0.133202
	-0.138034
	-0.141899
	-0.147375
	-0.147375
	-0.152207
	-0.154462
	-0.165736
	-0.165092
	-0.169602
	-0.169602
	-0.171857
	-0.167669
	-0.166059
	-0.155106
	-0.150919
	-0.140933
	-0.138356
	-0.131269
	-0.129980
	-0.123538
	-0.122894
	-0.113874
	-0.111297
	-0.094868
	-0.084238
	-0.068132
	0.001126
	0.111937
	0.258506
	0.426334
	0.605760
	0.779710
	0.952693
	1.096685
	1.215873
	1.294473
	1.351490
	1.380482
	1.390146
	1.388213
	1.342148
	1.298661
	1.217162
	1.153380
	1.077035
	0.995858
	0.892777
	0.830606
	0.748463
	0.696278
	0.606082
	0.548421
	0.466278
	0.412805
	0.330662
	0.277511
	0.205032
	0.151881
	0.077148
	0.031083
	-0.009827
	-0.043006
	-0.073286
	-0.105177
	-0.138678
	-0.175400
	-0.219210
	-0.257865
	-0.294587
	-0.329377
	-0.349349
	-0.375763
	-0.391870
	-0.397990
	-0.389937
	-0.380595
	-0.367388
	-0.352892
	-0.339363
	-0.318747
	-0.302318
	-0.282669
	-0.268495
	-0.254644
	-0.248845
	-0.237571
	-0.237249
	-0.224041
	-0.221464
	-0.214056
	-0.212123
	-0.205036
	-0.201493
	-0.188607
	-0.180232
	-0.169924
	-0.165736
	-0.158650
	-0.158650
	-0.151885
	-0.149308
	-0.148019
	-0.148986
	-0.150274
	-0.150274
	-0.146731
	-0.152529
	-0.149630
	-0.153496
	-0.153818
	-0.154140
	-0.148019
	-0.144476
	-0.138034
	-0.130625
	-0.125793
	-0.121283
	-0.121283
	-0.123538
	-0.121283
	-0.121283
	-0.121605
	-0.121283
	-0.124826
	-0.122894
	-0.129014
	-0.131269
	-0.136423
	-0.134812
	-0.139000
	-0.137067
	-0.139000
	-0.134490
	-0.132557
	-0.121605
	-0.119994
	-0.110975
	-0.114840
	-0.108720
	-0.107431
	-0.106143
	-0.106465
	-0.107431
	-0.107754
	-0.109686
	-0.111619
	-0.116129
	-0.115162
	-0.115485
	-0.112585
	-0.116451
	-0.110008
	-0.107109
	-0.099378
	-0.091969
	-0.085527
	-0.081983
	-0.076829
	-0.078440
	-0.073608
	-0.076185
	-0.071997
	-0.077151
	-0.074897
	-0.076829
	-0.078762
	-0.082305
	-0.080373
	-0.082305
	-0.079728
	-0.083916
	-0.077474
	-0.074897
	-0.065555
	-0.059434
	-0.050093
	-0.044294
	-0.042040
	-0.045261
	-0.039463
	-0.042684
	-0.035597
	-0.037208
	-0.035275
	-0.036563
	-0.033020
	-0.039140
	-0.036241
	-0.043972
	-0.040751
	-0.044294
	-0.036563
	-0.037208
	-0.029477
	-0.020457
	-0.010793
	-0.003384
	0.002414
	0.003380
	0.011112
	0.013044
	0.019809
	0.016588
	0.018198
	0.017554
	0.020453
	0.019809
	0.023352
	0.021742
	0.026896
	0.027218
	0.034627
	0.017554
	0.014333
	0.011112
	0.012078
	0.004347
	0.000159
	-0.011437
	-0.010149
	-0.020135
	-0.022712
	-0.032054
	-0.033020
	-0.043006
	-0.046871
	-0.064266
	-0.068132
	-0.080695
	-0.083916
	-0.092291
	-0.094224
	-0.100345
	-0.096801
	-0.096157
	-0.091325
	-0.095191
	-0.093580
	-0.099700
	-0.098734
	-0.105499
	-0.108076
	-0.115807
	-0.118062
	-0.127403
	-0.130625
	-0.144154
	-0.143832
	-0.149952
	-0.151563
	-0.158328
	-0.160582
	-0.165092
	-0.157361
	-0.154140
	-0.148986
	-0.151241
	-0.149630
	-0.155428
	-0.151885
	-0.152207
	-0.146409
	-0.148342
	-0.143188
	-0.148664
	-0.147053
	-0.154140
	-0.148664
	-0.149308
	-0.143510
	-0.142221
	-0.134168
	-0.129336
	-0.106787
	-0.089392
	-0.062011
	0.005635
	0.125145
	0.263015
	0.441797
	0.614135
	0.794850
	0.956881
	1.107960
	1.215551
	1.302526
	1.345047
	1.373073
	1.374039
	1.373717
	1.322820
	1.285131
	1.199122
	1.146293
	1.047077
	0.987805
	0.897609
	0.846390
	0.763925
	0.720438
	0.624444
	0.576768
	0.481096
	0.432455
	0.334850
	0.282665
	0.193758
	0.144472
	0.059109
	0.016910
	-0.034308
	-0.055891
	-0.093580
	-0.110008
	-0.140288
	-0.163804
	-0.204070
	-0.237893
	-0.281702
	-0.304251
	-0.332920
	-0.350637
	-0.378340
	-0.381884
	-0.392192
	-0.386394
	-0.385427
	-0.370609
	-0.360301
	-0.337430
	-0.328089
	-0.301352
	-0.289111
	-0.264307
	-0.251422
	-0.231128
	-0.221787
	-0.208902
	-0.204714
	-0.194084
	-0.192473
	-0.183131
	-0.185708
	-0.174434
	-0.178944
	-0.176045
	-0.183131
	-0.176689
	-0.177011
	-0.171535
	-0.173790
	-0.168958
	-0.168636
	-0.158650
	-0.154784
	-0.140933
	-0.136745
	-0.134168
	-0.137067
	-0.133202
	-0.132879
	-0.128048
	-0.130302
	-0.126437
	-0.132879
	-0.130625
	-0.137711
	-0.137711
	-0.141255
	-0.141255
	-0.144798
	-0.141899
	-0.141899
	-0.132557
	-0.128048
	-0.120317
	-0.117739
	-0.116773
	-0.120639
	-0.116129
	-0.119994
	-0.117095
	-0.120961
	-0.117739
	-0.124504
	-0.123538
	-0.129980
	-0.128692
	-0.128692
	-0.126115
	-0.129980
	-0.125148
	-0.126437
	-0.115807
	-0.112585
	-0.103244
	-0.101633
	-0.098734
	-0.097768
	-0.093580
	-0.095835
	-0.091647
	-0.091647
	-0.084882
	-0.091969
	-0.090359
	-0.096801
	-0.094868
	-0.095835
	-0.092936
	-0.095835
	-0.092936
	-0.095191
	-0.084882
	-0.081339
	-0.072320
	-0.070387
	-0.065555
	-0.065555
	-0.061367
	-0.062334
	-0.057502
	-0.058790
	-0.053958
	-0.059757
	-0.053958
	-0.057180
	-0.057502
	-0.059757
	-0.061045
	-0.061689
	-0.056857
	-0.054280
	-0.044617
	-0.039140
	-0.028832
	-0.021745
	-0.021423
	-0.022712
	-0.022390
	-0.019813
	-0.016269
	-0.019813
	-0.015303
	-0.018524
	-0.015303
	-0.016269
	-0.012404
	-0.014659
	-0.009183
	-0.007894
	0.000803
	-0.000807
	0.008857
	0.016588
	0.026896
	0.034305
	0.036882
	0.040747
	0.045257
	0.049767
	0.053954
	0.035915
	0.027218
	0.013689
	0.007568
	-0.007894
	-0.015947
	-0.024967
	-0.030443
	-0.037208
	-0.040751
	-0.045583
	-0.043328
	-0.042040
	-0.042362
	-0.046227
	-0.056213
	-0.060079
	-0.065233
	-0.068776
	-0.075219
	-0.081339
	-0.085849
	-0.092614
	-0.100667
	-0.106787
	-0.113230
	-0.113230
	-0.120639
	-0.124504
	-0.128048
	-0.130302
	-0.129014
	-0.125793
	-0.125793
	-0.123860
	-0.127725
	-0.128692
	-0.132235
	-0.136101
	-0.139000
	-0.147053
	-0.145442
	-0.150919
	-0.157361
	-0.163159
	-0.166381
	-0.170568
	-0.171213
	-0.173468
	-0.164770
	-0.162515
	-0.153496
	-0.146087
	-0.139644
	-0.135134
	-0.131269
	-0.131269
	-0.122249
	-0.121927
	-0.112908
	-0.111619
	-0.094546
	-0.088426
	-0.069420
	-0.016591
	0.105495
	0.234024
	0.418603
	0.581923
	0.772301
	0.929822
	1.089598
	1.203632
	1.294473
	1.346980
	1.383381
	1.388535
	1.393045
	1.345370
	1.306070
	1.221027
	1.161111
	1.058674
	0.993604
	0.894388
	0.837049
	0.750396
	0.704331
	0.609948
	0.560662
	0.470788
	0.426012
	0.335494
	0.291363
	0.208898
	0.164122
	0.079403
	0.039459
	-0.010471
	-0.035919
	-0.075541
	-0.097445
	-0.140611
	-0.166703
	-0.219532
	-0.250456
	-0.295232
	-0.321968
	-0.350637
	-0.369965
	-0.394769
	-0.392192
	-0.389937
	-0.376408
	-0.369643
	-0.354503
	-0.342584
	-0.321324
	-0.305862
	-0.283313
	-0.272683
	-0.252711
	-0.251744
	-0.238859
	-0.237893
	-0.224364
	-0.222431
	-0.213411
	-0.215666
	-0.203103
	-0.202781
	-0.186997
	-0.178299
	-0.168636
	-0.165092
	-0.160260
	-0.160582
	-0.150596
	-0.152207
	-0.147053
	-0.151241
	-0.148664
	-0.151241
	-0.147697
	-0.151563
	-0.150596
	-0.155428
	-0.152207
	-0.155106
	-0.147697
	-0.144476
	-0.137389
	-0.129980
	-0.122571
	-0.120639
	-0.120317
	-0.123860
	-0.119994
	-0.122894
	-0.119672
	-0.122249
	-0.123216
	-0.126437
	-0.126759
	-0.132557
	-0.131913
	-0.137389
	-0.137389
	-0.139000
	-0.137067
	-0.136423
	-0.127725
	-0.122571
	-0.113874
	-0.112908
	-0.110975
	-0.109686
	-0.105177
	-0.105499
	-0.105499
	-0.109364
	-0.105177
	-0.111941
	-0.110653
	-0.116773
	-0.115485
	-0.116129
	-0.113874
	-0.116773
	-0.110653
	-0.108076
	-0.093902
	-0.090037
	-0.081983
	-0.078440
	-0.078440
	-0.075541
	-0.073930
	-0.071997
	-0.072642
	-0.073286
	-0.075541
	-0.076185
	-0.081339
	-0.083272
	-0.082950
	-0.082628
	-0.081983
	-0.082950
	-0.078762
	-0.071031
	-0.065877
	-0.057180
	-0.047838
	-0.040429
	-0.043006
	-0.041717
	-0.042362
	-0.039463
	-0.039463
	-0.033664
	-0.037530
	-0.035597
	-0.036563
	-0.036563
	-0.040429
	-0.039140
	-0.045261
	-0.040751
	-0.038818
	-0.033342
	-0.028188
	-0.018202
	-0.009183
	-0.000163
	0.001770
	0.006924
	0.009823
	0.014655
	0.017554
	0.017232
	0.018520
	0.019165
	0.019487
	0.022386
	0.023030
	0.022708
	0.027862
	0.027862
	0.033983
	0.020131
	0.016266
	0.012722
	0.014655
	0.006280
	0.001448
	-0.011115
	-0.010149
	-0.021101
	-0.021101
	-0.031087
	-0.032054
	-0.043972
	-0.045583
	-0.064588
	-0.067488
	-0.082305
	-0.082950
	-0.092291
	-0.093902
	-0.099056
	-0.092614
	-0.094224
	-0.089714
	-0.092936
	-0.095835
	-0.097768
	-0.099056
	-0.102277
	-0.107754
	-0.112908
	-0.117739
	-0.122894
	-0.132557
	-0.139000
	-0.145442
	-0.145765
	-0.151885
	-0.154784
	-0.161549
	-0.161227
	-0.158005
	-0.148986
	-0.150919
	-0.145765
	-0.153173
	-0.148986
	-0.153173
	-0.148664
	-0.147697
	-0.142543
	-0.146087
	-0.144154
	-0.150919
	-0.149630
	-0.151885
	-0.146731
	-0.145120
	-0.140933
	-0.136423
	-0.126437
	-0.108076
	-0.086493
	-0.064266
	-0.005317
	0.116125
	0.244654
	0.432133
	0.593197
	0.785830
	0.940130
	1.100551
	1.208786
	1.297050
	1.341182
	1.371140
	1.372751
	1.373717
	1.325397
	1.287386
	1.207820
	1.148548
	1.055130
	0.993926
	0.905984
	0.850900
	0.768113
	0.726236
	0.630564
	0.582889
	0.488505
	0.440508
	0.341937
	0.289430
	0.197946
	0.150915
	0.064263
	0.023030
	-0.031409
	-0.051703
	-0.088426
	-0.102922
	-0.134168
	-0.157039
	-0.198916
	-0.233061
	-0.275904
	-0.300064
	-0.327766
	-0.350637
	-0.372542
	-0.386071
	-0.388326
	-0.391225
	-0.384139
	-0.374797
	-0.358691
	-0.342584
	-0.324223
	-0.306828
	-0.283313
	-0.267529
	-0.246590
	-0.233061
	-0.217599
	-0.211801
	-0.202137
	-0.196339
	-0.190862
	-0.187963
	-0.182487
	-0.180876
	-0.175078
	-0.179588
	-0.178944
	-0.178622
	-0.175400
	-0.173145
	-0.168958
	-0.171857
	-0.163804
	-0.160582
	-0.148342
	-0.140288
	-0.131269
	-0.135779
	-0.133846
	-0.135779
	-0.130625
	-0.131591
	-0.127081
	-0.128370
	-0.128048
	-0.131269
	-0.136423
	-0.137067
	-0.139644
	-0.142221
	-0.141255
	-0.141577
	-0.138678
	-0.129980
	-0.125148
	-0.116773
	-0.116129
	-0.117417
	-0.119672
	-0.118384
	-0.118062
	-0.117417
	-0.120639
	-0.118062
	-0.125148
	-0.121927
	-0.130947
	-0.129336
	-0.130947
	-0.124826
	-0.129336
	-0.124182
	-0.126115
	-0.112585
	-0.110975
	-0.100989
	-0.100345
	-0.100022
	-0.095513
	-0.093580
	-0.091647
	-0.093258
	-0.089392
	-0.088426
	-0.089070
	-0.092614
	-0.094546
	-0.096479
	-0.092936
	-0.093902
	-0.093580
	-0.092291
	-0.090037
	-0.082950
	-0.076185
	-0.072320
	-0.065877
	-0.067165
	-0.062656
	-0.062978
	-0.060079
	-0.058790
	-0.055891
	-0.057180
	-0.056535
	-0.058468
	-0.055569
	-0.059757
	-0.059434
	-0.064588
	-0.061689
	-0.058468
	-0.052025
	-0.047516
	-0.034953
	-0.029477
	-0.018524
	-0.025933
	-0.021423
	-0.024645
	-0.019168
	-0.019813
	-0.016914
	-0.019813
	-0.015947
	-0.020135
	-0.014981
	-0.018202
	-0.012726
	-0.013048
	-0.005961
	-0.004351
	0.004025
	0.007246
	0.020775
	0.024963
	0.038492
	0.033983
	0.043646
	0.043002
	0.049767
	0.051700
	0.038814
	0.024319
	0.016266
	0.003380
	-0.006283
	-0.016914
	-0.025611
	-0.031731
	-0.036885
	-0.040107
	-0.043650
	-0.042040
	-0.040107
	-0.038818
	-0.043972
	-0.053314
	-0.060401
	-0.062334
	-0.070387
	-0.072964
	-0.082950
	-0.084238
	-0.094224
	-0.100022
	-0.110331
	-0.110975
	-0.117417
	-0.117417
	-0.125793
	-0.127081
	-0.131269
	-0.125471
	-0.124504
	-0.122249
	-0.124826
	-0.127725
	-0.130302
	-0.129980
	-0.138356
	-0.139644
	-0.148019
	-0.147697
	-0.152851
	-0.156395
	-0.166059
	-0.165414
	-0.172501
	-0.170246
	-0.174112
	-0.163482
	-0.160905
	-0.150919
	-0.143832
	-0.139322
	-0.134812
	-0.133524
	-0.129658
	-0.123860
	-0.121605
	-0.116451
	-0.110975
	-0.098090
	-0.087137
	-0.073930
	-0.025611
	0.097120
	0.216951
	0.405396
	0.563239
	0.759093
	0.917581
	1.080901
	1.195257
	1.287386
	1.348269
	1.378871
	1.391434
	1.390146
	1.352779
	1.305103
	1.231980
	1.160467
	1.071559
	0.993604
	0.903729
	0.836727
	0.759093
	0.704331
	0.617679
	0.561306
	0.478519
	0.432133
	0.344192
	0.297805
	0.216629
	0.170565
	0.085201
	0.043324
	-0.006283
	-0.033020
	-0.073286
	-0.093902
	-0.136423
	-0.161871
	-0.217599
	-0.247557
	-0.295232
	-0.319069
	-0.351604
	-0.367066
	-0.392514
	-0.388648
	-0.388648
	-0.374797
	-0.369321
	-0.355791
	-0.342262
	-0.321968
	-0.303929
	-0.285568
	-0.270428
	-0.257543
	-0.248523
	-0.240470
	-0.235960
	-0.228873
	-0.220820
	-0.218243
	-0.211156
	-0.207291
	-0.198271
	-0.186030
	-0.173468
	-0.169924
	-0.163159
	-0.164448
	-0.156395
	-0.155106
	-0.147697
	-0.150596
	-0.148664
	-0.151241
	-0.150919
	-0.150596
	-0.149952
	-0.152207
	-0.152851
	-0.154462
	-0.154140
	-0.147053
	-0.143832
	-0.133524
	-0.128370
	-0.121283
	-0.120639
	-0.121605
	-0.121927
	-0.120639
	-0.123216
	-0.120961
	-0.126115
	-0.123216
	-0.128692
	-0.128370
	-0.134490
	-0.134168
	-0.139000
	-0.136423
	-0.142221
	-0.135456
	-0.137067
	-0.124504
	-0.122249
	-0.114196
	-0.111619
	-0.112908
	-0.110331
	-0.105821
	-0.106143
	-0.105499
	-0.108076
	-0.106787
	-0.109364
	-0.112908
	-0.114840
	-0.116773
	-0.114840
	-0.113552
	-0.115162
	-0.109686
	-0.104532
	-0.094868
	-0.086171
	-0.082305
	-0.077151
	-0.081661
	-0.074574
	-0.076185
	-0.071997
	-0.075541
	-0.073930
	-0.076507
	-0.075863
	-0.083272
	-0.082950
	-0.084882
	-0.081983
	-0.083594
	-0.081983
	-0.076829
	-0.070709
	-0.062656
	-0.055247
	-0.047194
	-0.039463
	-0.042362
	-0.042040
	-0.040107
	-0.043006
	-0.035919
	-0.039140
	-0.034953
	-0.039463
	-0.035597
	-0.039140
	-0.037530
	-0.043972
	-0.040107
	-0.045261
	-0.035275
	-0.034631
	-0.023678
	-0.017558
	-0.006606
	-0.002096
	0.003058
	0.004347
	0.011112
	0.014011
	0.017554
	0.018520
	0.017554
	0.019165
	0.018198
	0.018843
	0.021097
	0.023674
	0.024963
	0.030117
	0.031406
	0.025285
	0.017232
	0.018198
	0.013689
	0.010467
	-0.001451
	-0.006283
	-0.011437
	-0.015947
	-0.024967
	-0.026900
	-0.034953
	-0.038174
	-0.050093
	-0.060079
	-0.071031
	-0.078440
	-0.085849
	-0.089392
	-0.095191
	-0.093902
	-0.092936
	-0.090681
	-0.088748
	-0.091647
	-0.097445
	-0.097445
	-0.097768
	-0.104210
	-0.107431
	-0.113552
	-0.117739
	-0.126759
	-0.132879
	-0.142865
	-0.142865
	-0.150596
	-0.151241
	-0.158328
	-0.159938
	-0.163482
	-0.152851
	-0.150274
	-0.143832
	-0.149308
	-0.148019
	-0.154140
	-0.149630
	-0.153173
	-0.146409
	-0.147375
	-0.144476
	-0.150596
	-0.148342
	-0.156717
	-0.148664
	-0.152529
	-0.143832
	-0.144476
	-0.133202
	-0.129658
	-0.104210
	-0.090681
	-0.059757
	-0.019168
	0.112582
	0.222749
	0.422147
	0.571937
	0.773589
	0.922091
	1.088632
	1.197190
	1.291252
	1.336994
	1.369207
	1.374361
	1.372106
	1.335384
	1.289963
	1.220061
	1.153058
	1.065761
	0.998436
	0.917581
	0.850900
	0.779065
	0.723659
	0.643449
	0.580956
	0.497525
	0.440830
	0.349346
	0.291363
	0.205999
	0.153492
	0.070705
	0.022386
	-0.023678
	-0.052992
	-0.085205
	-0.101311
	-0.131269
	-0.154140
	-0.196339
	-0.231773
	-0.271394
	-0.300386
	-0.325189
	-0.350315
	-0.371254
	-0.386394
	-0.388648
	-0.393158
	-0.386394
	-0.377374
	-0.359335
	-0.345161
	-0.325189
	-0.308439
	-0.285246
	-0.265596
	-0.246590
	-0.232095
	-0.219210
	-0.212767
	-0.203747
	-0.196339
	-0.190862
	-0.187641
	-0.183776
	-0.179588
	-0.175078
	-0.179910
	-0.180232
	-0.179588
	-0.177333
	-0.172501
	-0.170568
	-0.168958
	-0.164448
	-0.156073
	-0.148342
	-0.138034
	-0.134812
	-0.134812
	-0.136101
	-0.132235
	-0.134812
	-0.129336
	-0.128048
	-0.128370
	-0.131269
	-0.131591
	-0.138356
	-0.137067
	-0.142543
	-0.140933
	-0.142865
	-0.138678
	-0.139644
	-0.128692
	-0.125471
	-0.116773
	-0.117739
	-0.117095
	-0.120639
	-0.115162
	-0.119350
	-0.117739
	-0.121605
	-0.119994
	-0.123538
	-0.126115
	-0.129014
	-0.129980
	-0.129980
	-0.124826
	-0.128048
	-0.124826
	-0.120961
	-0.113230
	-0.105499
	-0.101633
	-0.098412
	-0.102599
	-0.096157
	-0.094868
	-0.093580
	-0.093580
	-0.088426
	-0.090681
	-0.089392
	-0.095513
	-0.095835
	-0.099056
	-0.093902
	-0.095835
	-0.092936
	-0.094868
	-0.088104
	-0.085527
	-0.074897
	-0.071997
	-0.066199
	-0.069098
	-0.061689
	-0.063622
	-0.061689
	-0.061367
	-0.055891
	-0.059757
	-0.057180
	-0.060079
	-0.056213
	-0.060079
	-0.060723
	-0.063944
	-0.062656
	-0.059757
	-0.050415
	-0.045905
	-0.035275
	-0.029477
	-0.020779
	-0.025611
	-0.021745
	-0.024967
	-0.020135
	-0.022068
	-0.016591
	-0.021423
	-0.015303
	-0.019491
	-0.016914
	-0.016269
	-0.011437
	-0.011760
	-0.005961
	-0.004028
	0.005635
	0.009501
	0.021420
	0.026896
	0.034627
	0.036237
	0.041069
	0.044613
	0.050089
	0.051377
	0.041714
	0.024963
	0.016588
	0.006602
	-0.006928
	-0.014014
	-0.025611
	-0.030765
	-0.037530
	-0.040751
	-0.043006
	-0.038174
	-0.039140
	-0.035275
	-0.046871
	-0.052670
	-0.059757
	-0.063622
	-0.068132
	-0.073930
	-0.078440
	-0.085527
	-0.093580
	-0.099056
	-0.107754
	-0.113230
	-0.115485
	-0.119994
	-0.124182
	-0.126115
	-0.128370
	-0.123216
	-0.122571
	-0.119350
	-0.124504
	-0.127081
	-0.128370
	-0.129658
	-0.135134
	-0.140288
	-0.147697
	-0.145765
	-0.153496
	-0.154784
	-0.166381
	-0.166059
	-0.172501
	-0.170568
	-0.175400
	-0.164448
	-0.163482
	-0.148342
	-0.146087
	-0.136101
	-0.136101
	-0.133524
	-0.131591
	-0.124504
	-0.122894
	-0.115807
	-0.114840
	-0.096801
	-0.093902
	-0.073286
	-0.044294
	0.089711
	0.192792
	0.393800
	0.538113
	0.748141
	0.894710
	1.072525
	1.181405
	1.285131
	1.345370
	1.379193
	1.393689
	1.388857
	1.358899
	1.308002
	1.238744
	1.165621
	1.079934
	0.996181
	0.913715
	0.838981
	0.765858
	0.706909
	0.626698
	0.565494
	0.489150
	0.433421
	0.351601
	0.298450
	0.225326
	0.172175
	0.094220
	0.045579
	-0.001451
	-0.031409
	-0.068132
	-0.094224
	-0.132235
	-0.163482
	-0.210834
	-0.245624
	-0.289755
	-0.317780
	-0.345483
	-0.365455
	-0.385749
	-0.390259
	-0.384461
	-0.381562
	-0.368032
	-0.363523
	-0.341940
	-0.327444
	-0.306506
	-0.291044
	-0.271716
	-0.262052
	-0.248523
	-0.246268
	-0.235316
	-0.231450
	-0.222431
	-0.217921
	-0.212767
	-0.208902
	-0.197305
	-0.185708
	-0.172823
	-0.169924
	-0.164448
	-0.164448
	-0.158972
	-0.154784
	-0.149630
	-0.153173
	-0.147375
	-0.153496
	-0.149952
	-0.151885
	-0.149630
	-0.153818
	-0.151885
	-0.157361
	-0.151241
	-0.149630
	-0.141899
	-0.134490
	-0.126437
	-0.123216
	-0.119028
	-0.123216
	-0.120639
	-0.123860
	-0.119672
	-0.124182
	-0.121927
	-0.125148
	-0.126115
	-0.131269
	-0.131913
	-0.133524
	-0.135779
	-0.139000
	-0.138678
	-0.137067
	-0.134490
	-0.124504
	-0.119994
	-0.112908
	-0.112585
	-0.114196
	-0.109686
	-0.106143
	-0.105499
	-0.104854
	-0.107431
	-0.105499
	-0.111297
	-0.111297
	-0.117095
	-0.116773
	-0.117417
	-0.113552
	-0.115807
	-0.110008
	-0.105499
	-0.091647
	-0.088426
	-0.079728
	-0.080695
	-0.078762
	-0.077796
	-0.071997
	-0.076507
	-0.072964
	-0.077151
	-0.075541
	-0.080373
	-0.080695
	-0.087460
	-0.082628
	-0.085205
	-0.079728
	-0.085527
	-0.076507
	-0.070387
	-0.061045
	-0.055891
	-0.044294
	-0.042040
	-0.042684
	-0.042684
	-0.041073
	-0.041717
	-0.039140
	-0.034953
	-0.036241
	-0.037852
	-0.037208
	-0.038496
	-0.040107
	-0.042362
	-0.043972
	-0.041395
	-0.040107
	-0.029154
	-0.024967
	-0.016269
	-0.007572
	-0.001774
	-0.000485
	0.006924
	0.007246
	0.016266
	0.014011
	0.019165
	0.014655
	0.019487
	0.016910
	0.019809
	0.018843
	0.024963
	0.023030
	0.029151
	0.034305
	0.026896
	0.021742
	0.017232
	0.018198
	0.009179
	0.001448
	-0.006606
	-0.009827
	-0.017880
	-0.021101
	-0.030765
	-0.032698
	-0.043006
	-0.047194
	-0.061689
	-0.069420
	-0.080051
	-0.082628
	-0.092291
	-0.090681
	-0.096157
	-0.087460
	-0.092614
	-0.086171
	-0.095191
	-0.095835
	-0.098734
	-0.097768
	-0.104854
	-0.107431
	-0.117095
	-0.116129
	-0.128692
	-0.132235
	-0.142543
	-0.144798
	-0.150596
	-0.149952
	-0.158972
	-0.156395
	-0.162193
	-0.148986
	-0.149308
	-0.142543
	-0.149308
	-0.149630
	-0.153173
	-0.150596
	-0.152851
	-0.147053
	-0.148342
	-0.143510
	-0.149308
	-0.148342
	-0.154784
	-0.148664
	-0.149952
	-0.144154
	-0.144476
	-0.135134
	-0.127725
	-0.102922
	-0.089714
	-0.062334
	-0.032054
	0.100341
	0.201811
	0.406685
	0.549065
	0.758771
	0.901475
	1.077357
	1.183982
	1.281910
	1.333773
	1.362442
	1.376616
	1.369851
	1.343115
	1.290930
	1.230047
	1.158856
	1.078002
	1.004878
	0.925634
	0.857021
	0.785830
	0.730424
	0.648603
	0.588365
	0.503645
	0.447273
	0.355144
	0.297161
	0.207932
	0.160257
	0.074571
	0.030117
	-0.024000
	-0.045905
	-0.083916
	-0.091647
	-0.130302
	-0.143832
	-0.193762
	-0.224364
	-0.269139
	-0.294587
	-0.322290
	-0.344195
	-0.370609
	-0.384461
	-0.389937
	-0.393158
	-0.386071
	-0.381240
	-0.361590
	-0.350637
	-0.328411
	-0.311660
	-0.284601
	-0.263985
	-0.245302
	-0.231450
	-0.218887
	-0.215344
	-0.202459
	-0.198271
	-0.189896
	-0.188285
	-0.182809
	-0.179588
	-0.178299
	-0.180232
	-0.180232
	-0.180876
	-0.177333
	-0.173790
	-0.170890
	-0.166703
	-0.165414
	-0.150596
	-0.150919
	-0.136745
	-0.135779
	-0.135134
	-0.135779
	-0.134490
	-0.134490
	-0.129658
	-0.129658
	-0.127081
	-0.134168
	-0.132557
	-0.139000
	-0.138356
	-0.142221
	-0.140288
	-0.144476
	-0.138034
	-0.139000
	-0.126115
	-0.124504
	-0.115162
	-0.118062
	-0.117095
	-0.117739
	-0.116129
	-0.118706
	-0.116773
	-0.119672
	-0.121283
	-0.121283
	-0.127403
	-0.128370
	-0.132557
	-0.127403
	-0.127725
	-0.125793
	-0.126115
	-0.119672
	-0.113552
	-0.105821
	-0.102922
	-0.100022
	-0.104210
	-0.097123
	-0.096801
	-0.094868
	-0.094868
	-0.089714
	-0.091647
	-0.089070
	-0.095191
	-0.095191
	-0.098412
	-0.095835
	-0.095513
	-0.093580
	-0.093580
	-0.086815
	-0.081661
	-0.072642
	-0.071353
	-0.067810
	-0.070065
	-0.063300
	-0.063944
	-0.061367
	-0.062656
	-0.055569
	-0.060401
	-0.056857
	-0.061689
	-0.056857
	-0.061045
	-0.060401
	-0.063944
	-0.061367
	-0.059112
	-0.048804
	-0.043006
	-0.034953
	-0.027544
	-0.022712
	-0.025933
	-0.023034
	-0.024000
	-0.023034
	-0.020135
	-0.017236
	-0.020457
	-0.017558
	-0.020457
	-0.018202
	-0.014659
	-0.014014
	-0.009505
	-0.006928
	-0.002418
	0.005313
	0.014333
	0.019165
	0.029795
	0.032372
	0.038492
	0.038814
	0.046223
	0.047512
	0.052344
	0.039781
	0.026252
	0.013689
	0.006924
	-0.009827
	-0.014659
	-0.027544
	-0.030765
	-0.036563
	-0.040429
	-0.039785
	-0.036885
	-0.036241
	-0.035919
	-0.044939
	-0.053636
	-0.059112
	-0.065555
	-0.068454
	-0.077474
	-0.078762
	-0.086493
	-0.091325
	-0.102922
	-0.107431
	-0.115162
	-0.115807
	-0.121605
	-0.122894
	-0.126759
	-0.125471
	-0.122249
	-0.121927
	-0.119672
	-0.126115
	-0.128048
	-0.130947
	-0.129336
	-0.136101
	-0.140288
	-0.148019
	-0.148986
	-0.154784
	-0.157361
	-0.167669
	-0.166703
	-0.172179
	-0.171535
	-0.173790
	-0.164126
	-0.162515
	-0.146087
	-0.145120
	-0.135134
	-0.140611
	-0.132879
	-0.132235
	-0.125148
	-0.123216
	-0.117095
	-0.114840
	-0.100667
	-0.094868
	-0.076829
	-0.054280
	0.079725
	0.174108
	0.381881
	0.517175
	0.735578
	0.876993
	1.060929
	1.172063
	1.278044
	1.342148
	1.377583
	1.393045
	1.391112
	1.364053
	1.309613
	1.249697
	1.169164
	1.086699
	1.002623
	0.917903
	0.847035
	0.769079
	0.712707
	0.629598
	0.572581
	0.492371
	0.442441
	0.358365
	0.308113
	0.226293
	0.177329
	0.097442
	0.050733
	0.001770
	-0.029477
	-0.064588
	-0.090037
	-0.129980
	-0.158328
	-0.208902
	-0.242081
	-0.288467
	-0.317780
	-0.343873
	-0.363200
	-0.382528
	-0.385427
	-0.384461
	-0.378018
	-0.370609
	-0.361912
	-0.342906
	-0.327766
	-0.306506
	-0.290400
	-0.274615
	-0.258509
	-0.254321
	-0.244658
	-0.241114
	-0.231128
	-0.225330
	-0.216633
	-0.216310
	-0.203747
	-0.200848
	-0.182165
	-0.177655
	-0.166059
	-0.168313
	-0.163159
	-0.161227
	-0.153173
	-0.152851
	-0.147697
	-0.152207
	-0.149630
	-0.155428
	-0.151563
	-0.152529
	-0.152529
	-0.156073
	-0.153818
	-0.156395
	-0.147053
	-0.143510
	-0.131591
	-0.127081
	-0.121605
	-0.121927
	-0.122249
	-0.122894
	-0.120961
	-0.122249
	-0.124182
	-0.123216
	-0.126437
	-0.126437
	-0.131269
	-0.133846
	-0.134490
	-0.138356
	-0.138034
	-0.140288
	-0.138034
	-0.132557
	-0.121605
	-0.119672
	-0.112908
	-0.113230
	-0.113552
	-0.108720
	-0.107754
	-0.105499
	-0.108720
	-0.105177
	-0.109042
	-0.110653
	-0.116451
	-0.116773
	-0.122249
	-0.115485
	-0.118062
	-0.114196
	-0.114518
	-0.102277
	-0.093580
	-0.086171
	-0.083272
	-0.079728
	-0.084238
	-0.074897
	-0.077474
	-0.072320
	-0.076185
	-0.074897
	-0.078440
	-0.077151
	-0.085527
	-0.085527
	-0.087137
	-0.084882
	-0.083272
	-0.082950
	-0.077474
	-0.068454
	-0.061045
	-0.054280
	-0.047516
	-0.043006
	-0.043006
	-0.041717
	-0.040751
	-0.042040
	-0.041073
	-0.036241
	-0.039463
	-0.039463
	-0.040107
	-0.039463
	-0.041395
	-0.041395
	-0.043972
	-0.042362
	-0.038174
	-0.028510
	-0.022068
	-0.016914
	-0.005639
	-0.002418
	-0.000485
	0.004025
	0.008212
	0.013044
	0.014655
	0.017232
	0.015621
	0.014011
	0.013689
	0.015943
	0.016910
	0.021097
	0.024963
	0.026574
	0.035593
	0.028506
	0.023674
	0.016910
	0.018843
	0.008534
	0.000803
	-0.008860
	-0.009827
	-0.020135
	-0.021101
	-0.030765
	-0.033020
	-0.043328
	-0.049126
	-0.062656
	-0.069420
	-0.080695
	-0.083272
	-0.091969
	-0.090037
	-0.093258
	-0.085849
	-0.087460
	-0.086493
	-0.092614
	-0.096801
	-0.096157
	-0.099378
	-0.104210
	-0.110331
	-0.112263
	-0.120961
	-0.124504
	-0.135456
	-0.139644
	-0.148019
	-0.148664
	-0.152851
	-0.155106
	-0.161549
	-0.156717
	-0.154140
	-0.145442
	-0.145442
	-0.147053
	-0.152529
	-0.151241
	-0.154462
	-0.151241
	-0.151885
	-0.145120
	-0.148986
	-0.146087
	-0.154784
	-0.152851
	-0.154140
	-0.149630
	-0.147375
	-0.142543
	-0.139000
	-0.127081
	-0.107109
	-0.090359
	-0.067165
	-0.043650
	0.090355
	0.183128
	0.395410
	0.525872
	0.747175
	0.881825
	1.068338
	1.173352
	1.276756
	1.327652
	1.365020
	1.372429
	1.373395
	1.345692
	1.296406
	1.236812
	1.163044
	1.084444
	1.010676
	0.931110
	0.863463
	0.789696
	0.735578
	0.655690
	0.588687
	0.509444
	0.448883
	0.360298
	0.299738
	0.213408
	0.163478
	0.078758
	0.031728
	-0.021745
	-0.044294
	-0.080695
	-0.090681
	-0.129014
	-0.141577
	-0.195694
	-0.219854
	-0.271394
	-0.292977
	-0.326478
	-0.343229
	-0.372864
	-0.383172
	-0.393802
	-0.392836
	-0.391548
	-0.379629
	-0.366100
	-0.348383
	-0.330988
	-0.309083
	-0.285890
	-0.263341
	-0.246913
	-0.230484
	-0.224041
	-0.212767
	-0.205680
	-0.196016
	-0.193117
	-0.188930
	-0.183453
	-0.182487
	-0.177977
	-0.182487
	-0.182809
	-0.181521
	-0.179588
	-0.175078
	-0.170246
	-0.168636
	-0.160260
	-0.155106
	-0.147697
	-0.139322
	-0.135456
	-0.138356
	-0.136101
	-0.136423
	-0.134490
	-0.133202
	-0.129014
	-0.132235
	-0.129336
	-0.138356
	-0.136101
	-0.141899
	-0.141255
	-0.144154
	-0.141899
	-0.141577
	-0.133202
	-0.129658
	-0.119994
	-0.119672
	-0.115162
	-0.121605
	-0.116451
	-0.119672
	-0.117739
	-0.120639
	-0.119672
	-0.124826
	-0.123538
	-0.130947
	-0.129658
	-0.133202
	-0.129980
	-0.128370
	-0.128048
	-0.123216
	-0.120639
	-0.110008
	-0.106787
	-0.100345
	-0.103244
	-0.102277
	-0.099056
	-0.093902
	-0.095835
	-0.092936
	-0.092291
	-0.089070
	-0.092291
	-0.092936
	-0.099056
	-0.098412
	-0.100022
	-0.093258
	-0.097123
	-0.088748
	-0.087782
	-0.077151
	-0.075219
	-0.066843
	-0.071675
	-0.067810
	-0.066843
	-0.061689
	-0.063944
	-0.058146
	-0.057502
	-0.058146
	-0.058790
	-0.061367
	-0.059757
	-0.062011
	-0.061045
	-0.062978
	-0.063944
	-0.058468
	-0.049448
	-0.041717
	-0.034631
	-0.027866
	-0.023034
	-0.026577
	-0.021423
	-0.025289
	-0.023356
	-0.021423
	-0.016591
	-0.020135
	-0.020135
	-0.023034
	-0.018202
	-0.020135
	-0.014014
	-0.014014
	-0.006606
	-0.003384
	0.006602
	0.012722
	0.020131
	0.029151
	0.033016
	0.032694
	0.042036
	0.043324
	0.049123
	0.049767
	0.042680
	0.025929
	0.014977
	0.003380
	-0.005961
	-0.019491
	-0.024967
	-0.032376
	-0.037208
	-0.039785
	-0.040751
	-0.034631
	-0.038174
	-0.032698
	-0.046549
	-0.052025
	-0.060723
	-0.061689
	-0.071675
	-0.072964
	-0.082628
	-0.082305
	-0.097768
	-0.099378
	-0.110975
	-0.113874
	-0.118706
	-0.117739
	-0.124826
	-0.123860
	-0.127725
	-0.117095
	-0.122571
	-0.116451
	-0.128370
	-0.128692
	-0.131269
	-0.129658
	-0.138034
	-0.138034
	-0.148019
	-0.146731
	-0.153818
	-0.158005
	-0.165414
	-0.167669
	-0.171857
	-0.169602
	-0.172823
	-0.164126
	-0.157683
	-0.146409
	-0.141899
	-0.135779
	-0.136745
	-0.135779
	-0.131269
	-0.124504
	-0.121605
	-0.118706
	-0.113874
	-0.105177
	-0.094868
	-0.082950
	-0.063944
	0.068772
	0.154780
	0.367707
	0.496236
	0.721726
	0.859920
	1.051265
	1.158534
	1.275789
	1.334417
	1.378549
	1.390146
	1.393689
	1.367274
	1.314445
	1.254851
	1.173996
	1.094430
	1.007777
	0.924346
	0.851222
	0.774556
	0.716250
	0.638617
	0.575158
	0.500746
	0.446306
	0.365452
	0.311657
	0.230803
	0.181517
	0.101952
	0.053310
	0.003380
	-0.027544
	-0.063622
	-0.087137
	-0.130625
	-0.155106
	-0.206002
	-0.236604
	-0.283957
	-0.312626
	-0.340007
	-0.359657
	-0.379951
	-0.385105
	-0.382528
	-0.379951
	-0.370287
	-0.366744
	-0.343229
	-0.333243
	-0.306828
	-0.296842
	-0.272683
	-0.263985
	-0.251744
	-0.249167
	-0.239504
	-0.234350
	-0.222753
	-0.221464
	-0.211156
	-0.207935
	-0.194406
	-0.183131
	-0.173145
	-0.167991
	-0.166381
	-0.166703
	-0.158972
	-0.157361
	-0.148986
	-0.152529
	-0.148664
	-0.153496
	-0.154140
	-0.155751
	-0.150919
	-0.157683
	-0.152851
	-0.158972
	-0.153496
	-0.150274
	-0.139966
	-0.133524
	-0.126115
	-0.121283
	-0.119994
	-0.124182
	-0.120639
	-0.123216
	-0.119672
	-0.123216
	-0.122571
	-0.124504
	-0.127081
	-0.131591
	-0.131269
	-0.137389
	-0.135779
	-0.141255
	-0.137711
	-0.138678
	-0.131591
	-0.124182
	-0.117095
	-0.113874
	-0.112908
	-0.117417
	-0.109364
	-0.110331
	-0.105821
	-0.109686
	-0.107431
	-0.111619
	-0.111619
	-0.118062
	-0.116129
	-0.123538
	-0.116773
	-0.119028
	-0.115485
	-0.112585
	-0.100667
	-0.091325
	-0.084560
	-0.080051
	-0.079406
	-0.081339
	-0.075863
	-0.073930
	-0.071997
	-0.073930
	-0.076507
	-0.074897
	-0.081661
	-0.082628
	-0.085849
	-0.084560
	-0.085849
	-0.082628
	-0.084560
	-0.077151
	-0.071675
	-0.057502
	-0.057180
	-0.043650
	-0.046871
	-0.042040
	-0.043972
	-0.040429
	-0.043650
	-0.040107
	-0.039463
	-0.038496
	-0.042362
	-0.039463
	-0.041073
	-0.041395
	-0.041395
	-0.043972
	-0.042684
	-0.037208
	-0.027222
	-0.019813
	-0.014981
	-0.006283
	-0.003384
	-0.002096
	0.004991
	0.007568
	0.013689
	0.013366
	0.017554
	0.014333
	0.016266
	0.012722
	0.017876
	0.016910
	0.023030
	0.021420
	0.028184
	0.032050
	0.033338
	0.023674
	0.021097
	0.018843
	0.012078
	0.001126
	-0.004028
	-0.009827
	-0.017236
	-0.021101
	-0.029154
	-0.033342
	-0.044617
	-0.048160
	-0.062978
	-0.069742
	-0.079728
	-0.081017
	-0.091325
	-0.088748
	-0.093580
	-0.083916
	-0.089392
	-0.082950
	-0.094546
	-0.095513
	-0.099056
	-0.098412
	-0.105499
	-0.108076
	-0.115485
	-0.118706
	-0.127403
	-0.134168
	-0.140288
	-0.147697
	-0.147053
	-0.154462
	-0.156073
	-0.157361
	-0.155106
	-0.151241
	-0.145442
	-0.146087
	-0.147053
	-0.154784
	-0.150274
	-0.155106
	-0.149952
	-0.151241
	-0.145120
	-0.148664
	-0.147697
	-0.154784
	-0.152851
	-0.155428
	-0.151563
	-0.148986
	-0.142543
	-0.134168
	-0.125471
	-0.104532
	-0.091003
	-0.064588
	-0.052348
	0.084557
	0.163156
	0.382203
	0.502035
	0.736222
	0.859598
	1.057385
	1.155635
	1.269669
	1.321532
	1.361154
	1.371140
	1.373717
	1.349235
	1.301882
	1.245509
	1.167232
	1.094752
	1.015186
	0.941741
	0.867651
	0.798393
	0.737511
	0.664388
	0.593197
	0.520396
	0.450494
	0.369318
	0.297805
	0.222427
	0.161867
	0.087456
	0.030439
	-0.014014
	-0.045583
	-0.072320
	-0.091969
	-0.121927
	-0.141255
	-0.188930
	-0.220176
	-0.263663
	-0.293299
	-0.320358
	-0.342584
	-0.368354
	-0.386716
	-0.391870
	-0.397346
	-0.388326
	-0.385427
	-0.365133
	-0.352892
	-0.331632
	-0.311338
	-0.286534
	-0.261730
	-0.246913
	-0.230806
	-0.225008
	-0.214700
	-0.206969
	-0.198271
	-0.196661
	-0.188285
	-0.187319
	-0.181199
	-0.180554
	-0.183453
	-0.182165
	-0.184098
	-0.181199
	-0.177655
	-0.172179
	-0.169924
	-0.158972
	-0.154784
	-0.144476
	-0.141577
	-0.136745
	-0.138678
	-0.135134
	-0.136745
	-0.134812
	-0.133524
	-0.128370
	-0.133202
	-0.131913
	-0.139000
	-0.137389
	-0.141899
	-0.142543
	-0.141577
	-0.142543
	-0.139644
	-0.133202
	-0.125471
	-0.122249
	-0.115485
	-0.119350
	-0.116773
	-0.120639
	-0.115807
	-0.120317
	-0.118384
	-0.121927
	-0.121283
	-0.127725
	-0.127725
	-0.133846
	-0.131591
	-0.133202
	-0.128048
	-0.129336
	-0.125148
	-0.119994
	-0.109364
	-0.107754
	-0.098734
	-0.103566
	-0.102922
	-0.098090
	-0.095835
	-0.093580
	-0.096801
	-0.090681
	-0.091969
	-0.092614
	-0.096479
	-0.097123
	-0.100022
	-0.094546
	-0.098090
	-0.093258
	-0.092936
	-0.084238
	-0.079084
	-0.073608
	-0.070387
	-0.069098
	-0.072320
	-0.064266
	-0.064588
	-0.061045
	-0.062978
	-0.058146
	-0.058146
	-0.061045
	-0.062011
	-0.059757
	-0.060723
	-0.063622
	-0.061367
	-0.065555
	-0.054925
	-0.051703
	-0.039463
	-0.036885
	-0.024645
	-0.026255
	-0.023034
	-0.025933
	-0.021745
	-0.024645
	-0.019491
	-0.019168
	-0.018846
	-0.021101
	-0.021101
	-0.020457
	-0.016914
	-0.016269
	-0.011437
	-0.007894
	-0.002418
	0.008857
	0.012400
	0.021097
	0.027218
	0.031406
	0.032050
	0.038492
	0.042036
	0.047834
	0.048156
	0.046868
	0.023997
	0.016910
	0.003703
	-0.005639
	-0.016914
	-0.024967
	-0.030765
	-0.036885
	-0.038496
	-0.040107
	-0.034631
	-0.036563
	-0.032698
	-0.048482
	-0.051703
	-0.060401
	-0.062334
	-0.071675
	-0.072320
	-0.083272
	-0.084238
	-0.097123
	-0.100667
	-0.111619
	-0.113874
	-0.119672
	-0.117417
	-0.126115
	-0.123216
	-0.126437
	-0.116773
	-0.122249
	-0.117417
	-0.127403
	-0.129014
	-0.130947
	-0.130302
	-0.139322
	-0.139322
	-0.147053
	-0.148986
	-0.154784
	-0.158972
	-0.167025
	-0.168313
	-0.172823
	-0.170568
	-0.172501
	-0.166703
	-0.155106
	-0.147053
	-0.138356
	-0.136101
	-0.136423
	-0.135456
	-0.131591
	-0.127725
	-0.123216
	-0.121283
	-0.114518
	-0.108720
	-0.096479
	-0.084560
	-0.069742
	0.058786
	0.138996
	0.352245
	0.477553
	0.707875
	0.842525
	1.038702
	1.149837
	1.269991
	1.332162
	1.375328
	1.393045
	1.391756
	1.375328
	1.317022
	1.265803
	1.177218
	1.104094
	1.011965
	0.935942
	0.852511
	0.783575
	0.719149
	0.649247
	0.579990
	0.508477
	0.450172
	0.374150
	0.314878
	0.238534
	0.183128
	0.108716
	0.057176
	0.004669
	-0.023034
	-0.063944
	-0.085527
	-0.130625
	-0.155106
	-0.205358
	-0.234672
	-0.284924
	-0.308761
	-0.341940
	-0.354181
	-0.378340
	-0.381884
	-0.381562
	-0.378985
	-0.373186
	-0.367710
	-0.345161
	-0.333243
	-0.310694
	-0.297486
	-0.275260
	-0.266240
	-0.254644
	-0.252067
	-0.239826
	-0.237249
	-0.224041
	-0.222109
	-0.213733
	-0.208257
	-0.193439
	-0.183776
	-0.170568
	-0.167347
	-0.165414
	-0.165414
	-0.157683
	-0.156717
	-0.151563
	-0.151885
	-0.149630
	-0.153818
	-0.153173
	-0.156395
	-0.152529
	-0.157683
	-0.154784
	-0.158328
	-0.155428
	-0.147697
	-0.138356
	-0.131913
	-0.123538
	-0.121605
	-0.121283
	-0.124826
	-0.121605
	-0.123538
	-0.121283
	-0.124826
	-0.122571
	-0.126437
	-0.126437
	-0.134168
	-0.132235
	-0.139322
	-0.136745
	-0.139322
	-0.137067
	-0.135134
	-0.129014
	-0.123216
	-0.115162
	-0.113230
	-0.112585
	-0.115485
	-0.110653
	-0.107109
	-0.106465
	-0.107431
	-0.107431
	-0.107754
	-0.112585
	-0.115807
	-0.116773
	-0.120639
	-0.117095
	-0.114196
	-0.115162
	-0.110331
	-0.101633
	-0.090037
	-0.084560
	-0.079406
	-0.081017
	-0.081017
	-0.076185
	-0.072320
	-0.074574
	-0.073930
	-0.076507
	-0.074897
	-0.082950
	-0.081661
	-0.087782
	-0.085849
	-0.084882
	-0.081983
	-0.084238
	-0.077796
	-0.070387
	-0.057180
	-0.055891
	-0.043972
	-0.045905
	-0.042040
	-0.044294
	-0.041073
	-0.044617
	-0.039785
	-0.039785
	-0.038174
	-0.044294
	-0.039463
	-0.042684
	-0.041073
	-0.045583
	-0.043650
	-0.044939
	-0.036241
	-0.028188
	-0.020135
	-0.014981
	-0.004028
	-0.006283
	0.002092
	0.001448
	0.010145
	0.011112
	0.014977
	0.019487
	0.014977
	0.015943
	0.013689
	0.016266
	0.017554
	0.019809
	0.023352
	0.028506
	0.033016
	0.037204
	0.024641
	0.023997
	0.018520
	0.013044
	-0.001129
	-0.002740
	-0.010793
	-0.014659
	-0.025289
	-0.027222
	-0.037530
	-0.041395
	-0.053958
	-0.061367
	-0.073286
	-0.078762
	-0.085205
	-0.088426
	-0.091969
	-0.087782
	-0.087460
	-0.084238
	-0.086493
	-0.091325
	-0.098090
	-0.094868
	-0.098412
	-0.102599
	-0.109364
	-0.111619
	-0.121605
	-0.125793
	-0.136423
	-0.139966
	-0.148019
	-0.150274
	-0.151885
	-0.154462
	-0.156717
	-0.152529
	-0.149952
	-0.142865
	-0.143510
	-0.147697
	-0.150919
	-0.150919
	-0.149630
	-0.152207
	-0.148986
	-0.147053
	-0.147053
	-0.149308
	-0.151241
	-0.155751
	-0.151563
	-0.153818
	-0.145442
	-0.146731
	-0.135134
	-0.128048
	-0.103888
	-0.090359
	-0.064588
	-0.056857
	0.075859
	0.152203
	0.369962
	0.485606
	0.720760
	0.842847
	1.045466
	1.146615
	1.262904
	1.317344
	1.358255
	1.372751
	1.371140
	1.356966
	1.300916
	1.256784
	1.166909
	1.107960
	1.017441
	0.952049
	0.867651
	0.808057
	0.738799
	0.674374
	0.594163
	0.528127
	0.452105
	0.378337
	0.300704
	0.231125
	0.165089
	0.094865
	0.034305
	-0.009505
	-0.042040
	-0.067488
	-0.087137
	-0.116773
	-0.138356
	-0.187319
	-0.216633
	-0.262697
	-0.286534
	-0.321324
	-0.336464
	-0.368677
	-0.383172
	-0.393802
	-0.395091
	-0.393158
	-0.383817
	-0.368677
	-0.353214
	-0.332276
	-0.313915
	-0.285568
	-0.264952
	-0.247557
	-0.233061
	-0.225330
	-0.216955
	-0.203425
	-0.200848
	-0.191829
	-0.192151
	-0.182809
	-0.184420
	-0.178944
	-0.183776
	-0.182165
	-0.183776
	-0.177655
	-0.177655
	-0.169602
	-0.170246
	-0.157683
	-0.154462
	-0.144798
	-0.139644
	-0.136101
	-0.137067
	-0.134168
	-0.137711
	-0.133524
	-0.133846
	-0.129014
	-0.131269
	-0.131913
	-0.135779
	-0.137389
	-0.141255
	-0.139644
	-0.143510
	-0.141577
	-0.139322
	-0.130625
	-0.123538
	-0.119350
	-0.115485
	-0.116451
	-0.117095
	-0.116451
	-0.117739
	-0.116773
	-0.120639
	-0.119028
	-0.121605
	-0.124504
	-0.126759
	-0.130302
	-0.132879
	-0.130947
	-0.128370
	-0.129658
	-0.123860
	-0.118384
	-0.107754
	-0.106787
	-0.098412
	-0.105177
	-0.103244
	-0.099700
	-0.093902
	-0.097123
	-0.094868
	-0.093580
	-0.089070
	-0.094224
	-0.094868
	-0.100022
	-0.101311
	-0.096479
	-0.094546
	-0.096157
	-0.090359
	-0.084238
	-0.075219
	-0.070387
	-0.070065
	-0.068454
	-0.071031
	-0.062334
	-0.062978
	-0.061689
	-0.063300
	-0.057180
	-0.060723
	-0.060723
	-0.064266
	-0.058468
	-0.064266
	-0.061689
	-0.062978
	-0.061367
	-0.055891
	-0.046227
	-0.039140
	-0.032698
	-0.024967
	-0.024323
	-0.022712
	-0.025289
	-0.021745
	-0.026900
	-0.020135
	-0.022068
	-0.019491
	-0.024323
	-0.021423
	-0.022712
	-0.016914
	-0.019491
	-0.010793
	-0.011437
	0.001448
	0.006602
	0.016266
	0.020453
	0.031406
	0.032050
	0.036237
	0.040103
	0.045579
	0.047834
	0.049123
	0.047512
	0.027218
	0.017232
	0.001126
	-0.002740
	-0.020135
	-0.023356
	-0.033020
	-0.034953
	-0.039463
	-0.034308
	-0.035275
	-0.031731
	-0.034308
	-0.042362
	-0.051381
	-0.058468
	-0.061045
	-0.070387
	-0.072320
	-0.081017
	-0.084882
	-0.095513
	-0.100667
	-0.110331
	-0.112263
	-0.119994
	-0.117095
	-0.124826
	-0.120639
	-0.120961
	-0.116773
	-0.117095
	-0.118384
	-0.124504
	-0.128048
	-0.128692
	-0.131269
	-0.135134
	-0.142865
	-0.143510
	-0.152207
	-0.152529
	-0.159938
	-0.164770
	-0.170890
	-0.170568
	-0.174756
	-0.169924
	-0.170246
	-0.154140
	-0.148986
	-0.139644
	-0.137389
	-0.138356
	-0.136101
	-0.130302
	-0.126437
	-0.122249
	-0.119028
	-0.115807
	-0.103244
	-0.100345
	-0.080373
	-0.072964
	0.051700
	0.130943
	0.340970
	0.460480
	0.696923
	0.823841
	1.030326
	1.135663
	1.266125
	1.325720
	1.375328
	1.391112
	1.394011
	1.376616
	1.322498
	1.271924
	1.183660
	1.113758
	1.014864
	0.944640
	0.856054
	0.791951
	0.721726
	0.658267
	0.581278
	0.522973
	0.449528
	0.387357
	0.315844
	0.248198
	0.183772
	0.119024
	0.057176
	0.013366
	-0.025611
	-0.056535
	-0.086815
	-0.123860
	-0.153496
	-0.199560
	-0.234350
	-0.277515
	-0.308117
	-0.338719
	-0.352892
	-0.374797
	-0.378985
	-0.382206
	-0.378340
	-0.374153
	-0.367710
	-0.348060
	-0.333243
	-0.312949
	-0.295876
	-0.278481
	-0.264307
	-0.257865
	-0.250456
	-0.243047
	-0.234350
	-0.228551
	-0.218243
	-0.215344
	-0.203747
	-0.193762
	-0.180232
	-0.171213
	-0.164770
	-0.166703
	-0.162515
	-0.160260
	-0.153496
	-0.150919
	-0.147697
	-0.149630
	-0.151241
	-0.153818
	-0.155751
	-0.153173
	-0.157361
	-0.155106
	-0.157683
	-0.154784
	-0.150919
	-0.135779
	-0.132235
	-0.121605
	-0.121927
	-0.119672
	-0.124826
	-0.121283
	-0.123538
	-0.122571
	-0.123538
	-0.124182
	-0.126759
	-0.128692
	-0.131913
	-0.134490
	-0.135134
	-0.139322
	-0.136745
	-0.139322
	-0.133202
	-0.129336
	-0.120961
	-0.116451
	-0.110653
	-0.115807
	-0.112908
	-0.113552
	-0.105821
	-0.110653
	-0.107109
	-0.108720
	-0.109686
	-0.114196
	-0.115162
	-0.119672
	-0.119994
	-0.118384
	-0.115485
	-0.114196
	-0.112263
	-0.097123
	-0.091969
	-0.082628
	-0.080051
	-0.081661
	-0.083594
	-0.075219
	-0.076507
	-0.072642
	-0.077474
	-0.073608
	-0.080051
	-0.078118
	-0.086171
	-0.084882
	-0.089714
	-0.082950
	-0.086171
	-0.079728
	-0.079084
	-0.062978
	-0.058468
	-0.051381
	-0.044294
	-0.044939
	-0.040751
	-0.041717
	-0.040751
	-0.042362
	-0.040751
	-0.039140
	-0.037852
	-0.043650
	-0.040429
	-0.043328
	-0.041717
	-0.045583
	-0.043006
	-0.043650
	-0.036241
	-0.027866
	-0.018202
	-0.015947
	-0.004028
	-0.007250
	0.002414
	0.002736
	0.009179
	0.012722
	0.014977
	0.018520
	0.014011
	0.014011
	0.013366
	0.015621
	0.014655
	0.021420
	0.020775
	0.028829
	0.032372
	0.039459
	0.025607
	0.024641
	0.017876
	0.012400
	-0.001129
	-0.001774
	-0.012726
	-0.014659
	-0.023678
	-0.026255
	-0.035275
	-0.043006
	-0.051059
	-0.058790
	-0.070709
	-0.076829
	-0.082628
	-0.088104
	-0.088426
	-0.089714
	-0.083594
	-0.086815
	-0.082628
	-0.094224
	-0.094868
	-0.098090
	-0.096801
	-0.105499
	-0.105177
	-0.116451
	-0.117095
	-0.130947
	-0.133202
	-0.143510
	-0.146409
	-0.150274
	-0.149308
	-0.156717
	-0.152851
	-0.154784
	-0.147697
	-0.143832
	-0.140611
	-0.148664
	-0.149630
	-0.150919
	-0.150919
	-0.153818
	-0.149952
	-0.146731
	-0.148986
	-0.148342
	-0.154784
	-0.152851
	-0.156395
	-0.150596
	-0.150274
	-0.142221
	-0.138034
	-0.121927
	-0.107109
	-0.087782
	-0.069098
	-0.054280
	0.062974
	0.150593
	0.353211
	0.479808
	0.703687
	0.834150
	1.030971
	1.135663
	1.254207
	1.311224
	1.356322
	1.369851
	1.372106
	1.359543
	1.306714
	1.263226
	1.176895
	1.116013
	1.029682
	0.958814
	0.877959
	0.812567
	0.746530
	0.679528
	0.601572
	0.532959
	0.458547
	0.384136
	0.308113
	0.234668
	0.170565
	0.100019
	0.040747
	-0.006283
	-0.037852
	-0.062978
	-0.084238
	-0.111619
	-0.135779
	-0.182809
	-0.214056
	-0.256898
	-0.286212
	-0.317780
	-0.338397
	-0.365133
	-0.387038
	-0.392192
	-0.400567
	-0.390259
	-0.390259
	-0.368032
	-0.357080
	-0.331632
	-0.318425
	-0.282669
	-0.266562
	-0.243691
	-0.235316
	-0.225008
	-0.217599
	-0.206002
	-0.199882
	-0.194406
	-0.189896
	-0.185064
	-0.184098
	-0.182809
	-0.181199
	-0.185064
	-0.181843
	-0.182487
	-0.175400
	-0.172501
	-0.167025
	-0.160582
	-0.148664
	-0.148019
	-0.136423
	-0.140288
	-0.135134
	-0.135134
	-0.134812
	-0.135134
	-0.132879
	-0.129336
	-0.131913
	-0.133846
	-0.139000
	-0.136423
	-0.143188
	-0.139966
	-0.147053
	-0.141899
	-0.141255
	-0.130625
	-0.126759
	-0.117095
	-0.117739
	-0.116773
	-0.119994
	-0.117095
	-0.119028
	-0.118706
	-0.119672
	-0.120961
	-0.119350
	-0.126115
	-0.129336
	-0.132557
	-0.133846
	-0.135134
	-0.126759
	-0.129980
	-0.122249
	-0.117739
	-0.107754
	-0.104854
	-0.099056
	-0.101633
	-0.102599
	-0.097768
	-0.096801
	-0.095835
	-0.097445
	-0.091003
	-0.093580
	-0.092291
	-0.099700
	-0.096801
	-0.102922
	-0.095835
	-0.095835
	-0.094224
	-0.090037
	-0.084238
	-0.076507
	-0.072642
	-0.066199
	-0.071353
	-0.068454
	-0.066521
	-0.061367
	-0.065555
	-0.061045
	-0.060401
	-0.057180
	-0.062334
	-0.062656
	-0.061045
	-0.060079
	-0.063944
	-0.061367
	-0.063944
	-0.055891
	-0.047516
	-0.037852
	-0.033664
	-0.025933
	-0.024967
	-0.023356
	-0.022068
	-0.022712
	-0.024323
	-0.022068
	-0.018846
	-0.023356
	-0.022712
	-0.024645
	-0.021101
	-0.022712
	-0.017236
	-0.015303
	-0.008860
	-0.004351
	0.009179
	0.012400
	0.021420
	0.027862
	0.031406
	0.036237
	0.037848
	0.045901
	0.043646
	0.052022
	0.044291
	0.028506
	0.014011
	0.004669
	-0.004995
	-0.015303
	-0.024645
	-0.029799
	-0.034631
	-0.038174
	-0.033986
	-0.035919
	-0.030443
	-0.036885
	-0.043006
	-0.053636
	-0.056535
	-0.064266
	-0.067810
	-0.075863
	-0.078762
	-0.088426
	-0.093258
	-0.102277
	-0.108398
	-0.114518
	-0.120317
	-0.118384
	-0.125148
	-0.120961
	-0.122571
	-0.115807
	-0.119028
	-0.115807
	-0.127725
	-0.127081
	-0.130947
	-0.127725
	-0.136745
	-0.136423
	-0.146409
	-0.147697
	-0.153818
	-0.157683
	-0.164770
	-0.169924
	-0.169602
	-0.173145
	-0.170568
	-0.167669
	-0.153496
	-0.146731
	-0.139644
	-0.138356
	-0.138356
	-0.138034
	-0.130302
	-0.129658
	-0.121605
	-0.121605
	-0.116773
	-0.106143
	-0.100989
	-0.083916
	-0.074252
	0.042036
	0.127400
	0.326475
	0.454682
	0.681138
	0.815144
	1.017441
	1.128254
	1.260971
	1.323787
	1.373395
	1.392078
	1.390468
	1.385314
	1.321532
	1.282232
	1.183338
	1.124388
	1.018085
	0.952693
	0.858953
	0.800970
	0.725592
	0.668253
	0.587399
	0.527805
	0.456292
	0.393800
	0.322609
	0.253030
	0.190215
	0.121279
	0.062652
	0.012078
	-0.022712
	-0.058790
	-0.084560
	-0.124504
	-0.151241
	-0.200526
	-0.229840
	-0.278481
	-0.304251
	-0.337752
	-0.351604
	-0.370287
	-0.379629
	-0.378018
	-0.380917
	-0.373831
	-0.370609
	-0.348060
	-0.337430
	-0.312949
	-0.303607
	-0.278803
	-0.270750
	-0.255932
	-0.254321
	-0.240792
	-0.236604
	-0.226296
	-0.220820
	-0.212767
	-0.206969
	-0.191829
	-0.181199
	-0.171213
	-0.165414
	-0.169602
	-0.164126
	-0.164770
	-0.154462
	-0.154462
	-0.148664
	-0.151885
	-0.152851
	-0.155428
	-0.156395
	-0.153173
	-0.158005
	-0.154784
	-0.157361
	-0.153173
	-0.148342
	-0.135134
	-0.131591
	-0.121927
	-0.123538
	-0.120961
	-0.123538
	-0.120961
	-0.121927
	-0.123860
	-0.121605
	-0.125471
	-0.126115
	-0.132557
	-0.133846
	-0.136423
	-0.137067
	-0.139644
	-0.137389
	-0.140611
	-0.132879
	-0.127725
	-0.119994
	-0.115485
	-0.112263
	-0.113230
	-0.114196
	-0.109364
	-0.109042
	-0.106787
	-0.109364
	-0.106143
	-0.113552
	-0.113230
	-0.119994
	-0.117095
	-0.123216
	-0.118062
	-0.116129
	-0.114196
	-0.110008
	-0.100989
	-0.089714
	-0.086171
	-0.079084
	-0.084238
	-0.081339
	-0.078440
	-0.073608
	-0.075541
	-0.075219
	-0.077796
	-0.077796
	-0.082628
	-0.085849
	-0.086171
	-0.090681
	-0.083916
	-0.087137
	-0.081661
	-0.080695
	-0.064266
	-0.059434
	-0.050737
	-0.048482
	-0.043650
	-0.043650
	-0.040751
	-0.042362
	-0.042040
	-0.041717
	-0.038174
	-0.039463
	-0.042684
	-0.042362
	-0.042362
	-0.041395
	-0.042684
	-0.043006
	-0.043650
	-0.035275
	-0.027544
	-0.016591
	-0.016269
	-0.005639
	-0.010149
	0.002414
	-0.000485
	0.009501
	0.007568
	0.015299
	0.014333
	0.015299
	0.008534
	0.014977
	0.010145
	0.016910
	0.015299
	0.023997
	0.024963
	0.034627
	0.040425
	0.029473
	0.024963
	0.021097
	0.010467
	0.003380
	-0.007250
	-0.007894
	-0.016914
	-0.020779
	-0.029154
	-0.034308
	-0.043006
	-0.050415
	-0.061367
	-0.069742
	-0.081017
	-0.083272
	-0.089392
	-0.087460
	-0.086815
	-0.085205
	-0.084238
	-0.085527
	-0.091325
	-0.096479
	-0.095513
	-0.099056
	-0.100667
	-0.108398
	-0.112908
	-0.119672
	-0.127403
	-0.136101
	-0.140611
	-0.149308
	-0.147697
	-0.152851
	-0.153173
	-0.156717
	-0.149952
	-0.148342
	-0.141577
	-0.142543
	-0.148019
	-0.151241
	-0.150596
	-0.151885
	-0.152851
	-0.151241
	-0.150596
	-0.147697
	-0.154462
	-0.153818
	-0.157361
	-0.154784
	-0.155106
	-0.148986
	-0.146409
	-0.135134
	-0.126437
	-0.104854
	-0.091647
	-0.068776
	-0.059757
	0.054277
	0.144472
	0.336461
	0.471110
	0.685326
	0.823841
	1.014220
	1.126965
	1.243899
	1.308969
	1.350846
	1.371462
	1.368241
	1.366630
	1.307036
	1.275789
	1.178828
	1.128898
	1.030971
	0.971055
	0.880536
	0.822553
	0.746530
	0.689836
	0.604149
	0.542623
	0.461124
	0.392189
	0.310690
	0.241755
	0.173142
	0.105817
	0.042680
	-0.005639
	-0.035919
	-0.062656
	-0.083272
	-0.111619
	-0.135779
	-0.182165
	-0.212445
	-0.256254
	-0.284924
	-0.316814
	-0.337430
	-0.363523
	-0.386071
	-0.391225
	-0.401534
	-0.390259
	-0.391225
	-0.369321
	-0.359657
	-0.332920
	-0.317458
	-0.284601
	-0.266562
	-0.245624
	-0.236927
	-0.227907
	-0.218243
	-0.208579
	-0.202459
	-0.197949
	-0.190540
	-0.190218
	-0.183453
	-0.186997
	-0.182809
	-0.186997
	-0.184742
	-0.181843
	-0.177333
	-0.171535
	-0.165736
	-0.158972
	-0.150274
	-0.144154
	-0.138356
	-0.138356
	-0.137389
	-0.134168
	-0.137067
	-0.134812
	-0.133846
	-0.130625
	-0.133524
	-0.133846
	-0.138678
	-0.138356
	-0.144798
	-0.140611
	-0.146409
	-0.140288
	-0.141899
	-0.129980
	-0.127403
	-0.118384
	-0.119028
	-0.119028
	-0.121283
	-0.117417
	-0.119672
	-0.119994
	-0.121605
	-0.122571
	-0.124826
	-0.127081
	-0.129336
	-0.131591
	-0.132879
	-0.134168
	-0.128370
	-0.130302
	-0.121605
	-0.117417
	-0.107431
	-0.104210
	-0.099056
	-0.103566
	-0.102922
	-0.097445
	-0.097768
	-0.095513
	-0.097445
	-0.093258
	-0.093902
	-0.093902
	-0.100345
	-0.097445
	-0.105499
	-0.096479
	-0.098090
	-0.093902
	-0.090359
	-0.081983
	-0.076507
	-0.070387
	-0.067488
	-0.071353
	-0.069420
	-0.065877
	-0.062656
	-0.065877
	-0.062656
	-0.062656
	-0.059434
	-0.066199
	-0.064588
	-0.065877
	-0.063622
	-0.065555
	-0.062334
	-0.065877
	-0.054925
	-0.047838
	-0.037530
	-0.033986
	-0.026900
	-0.026577
	-0.023034
	-0.023034
	-0.023356
	-0.024323
	-0.021101
	-0.020135
	-0.021101
	-0.023356
	-0.024967
	-0.021745
	-0.022712
	-0.017558
	-0.015947
	-0.010149
	-0.003062
	0.010467
	0.013689
	0.021742
	0.025285
	0.031083
	0.033016
	0.039781
	0.043002
	0.043646
	0.050411
	0.045901
	0.028506
	0.012722
	0.003058
	-0.005639
	-0.016269
	-0.027222
	-0.029477
	-0.036563
	-0.035275
	-0.035275
	-0.032698
	-0.030765
	-0.033342
	-0.042040
	-0.051703
	-0.056857
	-0.062978
	-0.068776
	-0.074897
	-0.080373
	-0.088426
	-0.094868
	-0.107431
	-0.108720
	-0.119350
	-0.118062
	-0.122249
	-0.121283
	-0.126437
	-0.118706
	-0.119672
	-0.114518
	-0.120961
	-0.124826
	-0.128692
	-0.129980
	-0.129336
	-0.137711
	-0.139322
	-0.148342
	-0.150274
	-0.156395
	-0.158328
	-0.167991
	-0.169280
	-0.175722
	-0.171213
	-0.174434
	-0.167347
	-0.155751
	-0.145765
	-0.139000
	-0.138034
	-0.139644
	-0.136101
	-0.133524
	-0.128692
	-0.125471
	-0.121927
	-0.117739
	-0.112908
	-0.100345
	-0.089714
	-0.072642
	0.026252
	0.121923
	0.305536
	0.450172
	0.660522
	0.810634
	0.999402
	1.125033
	1.250019
	1.318633
	1.368563
	1.388535
	1.393045
	1.383703
	1.327975
	1.286098
	1.193002
	1.130831
	1.026139
	0.959458
	0.866362
	0.804514
	0.731068
	0.672441
	0.593841
	0.536502
	0.461446
	0.401853
	0.324864
	0.262049
	0.192792
	0.130621
	0.066195
	0.018843
	-0.021423
	-0.052992
	-0.086171
	-0.118706
	-0.154784
	-0.193117
	-0.234027
	-0.272683
	-0.307795
	-0.332920
	-0.354825
	-0.365777
	-0.382528
	-0.377696
	-0.383494
	-0.376730
	-0.372220
	-0.349671
	-0.339685
	-0.315203
	-0.304251
	-0.279447
	-0.272038
	-0.256898
	-0.255288
	-0.244013
	-0.238537
	-0.226941
	-0.222431
	-0.212123
	-0.206969
	-0.190862
	-0.181521
	-0.172501
	-0.165736
	-0.169924
	-0.164448
	-0.160905
	-0.156717
	-0.153818
	-0.152529
	-0.153496
	-0.151885
	-0.159294
	-0.155428
	-0.158005
	-0.155751
	-0.158650
	-0.157039
	-0.157039
	-0.148019
	-0.140933
	-0.128370
	-0.125148
	-0.119350
	-0.124504
	-0.121927
	-0.122571
	-0.123538
	-0.122571
	-0.124504
	-0.125471
	-0.127081
	-0.129014
	-0.133846
	-0.134812
	-0.139644
	-0.136745
	-0.142221
	-0.135779
	-0.138356
	-0.126115
	-0.122571
	-0.114196
	-0.114840
	-0.113874
	-0.116129
	-0.111619
	-0.110008
	-0.105821
	-0.109364
	-0.108076
	-0.110975
	-0.116773
	-0.116773
	-0.121927
	-0.121605
	-0.123216
	-0.118062
	-0.118062
	-0.111297
	-0.100667
	-0.089714
	-0.084882
	-0.079084
	-0.084882
	-0.081661
	-0.077796
	-0.075541
	-0.074252
	-0.077474
	-0.075863
	-0.082628
	-0.081983
	-0.089392
	-0.088104
	-0.091647
	-0.085849
	-0.086815
	-0.082305
	-0.080373
	-0.064911
	-0.060079
	-0.049771
	-0.048804
	-0.044939
	-0.043006
	-0.043328
	-0.041395
	-0.045583
	-0.041073
	-0.042684
	-0.039785
	-0.046549
	-0.043650
	-0.044294
	-0.042362
	-0.047194
	-0.042362
	-0.047194
	-0.035597
	-0.028510
	-0.019491
	-0.016591
	-0.007894
	-0.007572
	-0.000485
	0.000481
	0.007890
	0.007246
	0.014977
	0.012722
	0.013044
	0.010145
	0.010789
	0.012400
	0.014655
	0.016910
	0.021420
	0.026896
	0.032694
	0.043969
	0.027218
	0.028506
	0.017232
	0.014655
	-0.000485
	-0.002740
	-0.013048
	-0.015947
	-0.024000
	-0.026900
	-0.038818
	-0.040751
	-0.053636
	-0.058468
	-0.071997
	-0.076829
	-0.083272
	-0.086493
	-0.089714
	-0.083916
	-0.084560
	-0.081983
	-0.085205
	-0.093580
	-0.095513
	-0.098090
	-0.096801
	-0.105821
	-0.105821
	-0.115162
	-0.119028
	-0.129336
	-0.134168
	-0.143832
	-0.146731
	-0.152851
	-0.149308
	-0.158005
	-0.151241
	-0.152529
	-0.146731
	-0.144154
	-0.140933
	-0.151563
	-0.150274
	-0.154140
	-0.151241
	-0.155106
	-0.151241
	-0.149308
	-0.148986
	-0.150596
	-0.155751
	-0.155428
	-0.157039
	-0.152207
	-0.150596
	-0.144154
	-0.138356
	-0.122894
	-0.110653
	-0.089714
	-0.075219
	-0.057180
	0.037848
	0.139963
	0.317133
	0.463057
	0.665998
	0.815788
	1.000368
	1.120523
	1.235523
	1.305103
	1.347302
	1.370174
	1.371140
	1.368885
	1.314767
	1.278689
	1.185915
	1.136307
	1.038380
	0.978786
	0.886334
	0.828029
	0.752973
	0.695634
	0.611881
	0.546811
	0.465634
	0.397343
	0.314234
	0.249164
	0.176041
	0.111615
	0.046223
	-0.000163
	-0.033986
	-0.058790
	-0.081661
	-0.108398
	-0.138034
	-0.176367
	-0.213733
	-0.251422
	-0.285246
	-0.312949
	-0.337430
	-0.363523
	-0.385749
	-0.392192
	-0.401211
	-0.392514
	-0.393480
	-0.370609
	-0.363523
	-0.336142
	-0.320680
	-0.285246
	-0.268173
	-0.246913
	-0.240148
	-0.227907
	-0.222753
	-0.206969
	-0.202781
	-0.196661
	-0.193439
	-0.188607
	-0.186030
	-0.185064
	-0.184098
	-0.185064
	-0.185386
	-0.181843
	-0.177655
	-0.175722
	-0.164770
	-0.158972
	-0.149952
	-0.147053
	-0.139966
	-0.140611
	-0.137389
	-0.139000
	-0.134490
	-0.140611
	-0.132235
	-0.135456
	-0.131591
	-0.137389
	-0.137067
	-0.142221
	-0.141899
	-0.147053
	-0.143832
	-0.146087
	-0.137389
	-0.133846
	-0.124826
	-0.121927
	-0.117095
	-0.121283
	-0.117739
	-0.121605
	-0.118062
	-0.124182
	-0.118384
	-0.123216
	-0.123860
	-0.127081
	-0.130302
	-0.132235
	-0.134490
	-0.133846
	-0.129014
	-0.128692
	-0.125148
	-0.112908
	-0.109042
	-0.100022
	-0.102599
	-0.103566
	-0.104210
	-0.100345
	-0.097123
	-0.095835
	-0.098412
	-0.093580
	-0.096157
	-0.094546
	-0.100345
	-0.099056
	-0.103888
	-0.098734
	-0.100345
	-0.093580
	-0.092936
	-0.079728
	-0.078762
	-0.068454
	-0.071031
	-0.071997
	-0.072642
	-0.064266
	-0.066199
	-0.063300
	-0.067165
	-0.060079
	-0.062978
	-0.064911
	-0.064911
	-0.063300
	-0.062656
	-0.063622
	-0.063944
	-0.061367
	-0.056857
	-0.045905
	-0.039463
	-0.033020
	-0.028510
	-0.026255
	-0.025289
	-0.025289
	-0.024000
	-0.024000
	-0.023034
	-0.023034
	-0.021745
	-0.027222
	-0.024967
	-0.024323
	-0.021101
	-0.019491
	-0.013048
	-0.011437
	0.000481
	0.007890
	0.015943
	0.018198
	0.027540
	0.025929
	0.035593
	0.035271
	0.043646
	0.040425
	0.049123
	0.045901
	0.028506
	0.013044
	0.005313
	-0.004673
	-0.014981
	-0.023678
	-0.029799
	-0.033342
	-0.036241
	-0.031087
	-0.032376
	-0.029477
	-0.034953
	-0.042362
	-0.051059
	-0.057824
	-0.064266
	-0.068776
	-0.077151
	-0.079728
	-0.089070
	-0.095191
	-0.104210
	-0.108398
	-0.118062
	-0.116129
	-0.123216
	-0.119350
	-0.124182
	-0.116129
	-0.118062
	-0.113874
	-0.119672
	-0.124826
	-0.131269
	-0.129014
	-0.133846
	-0.134490
	-0.140611
	-0.146409
	-0.152851
	-0.154784
	-0.161871
	-0.164448
	-0.174756
	-0.169924
	-0.175722
	-0.170890
	-0.169924
	-0.153818
	-0.147053
	-0.138356
	-0.139000
	-0.139000
	-0.139644
	-0.131269
	-0.130625
	-0.124826
	-0.123216
	-0.118384
	-0.112263
	-0.103244
	-0.090037
	-0.077474
	0.016266
	0.117736
	0.290396
	0.439864
	0.647315
	0.800648
	0.989094
	1.115369
	1.242932
	1.314445
	1.365986
	1.387891
	1.392401
	1.386280
	1.332162
	1.290930
	1.198478
	1.137918
	1.031293
	0.966545
	0.869262
	0.813211
	0.733645
	0.680494
	0.599962
	0.542623
	0.465956
	0.409906
	0.330018
	0.267203
	0.196335
	0.139318
	0.069417
	0.020453
	-0.017236
	-0.052348
	-0.082305
	-0.116773
	-0.151241
	-0.188930
	-0.230484
	-0.269461
	-0.304573
	-0.330343
	-0.351604
	-0.365133
	-0.380595
	-0.376730
	-0.384783
	-0.375119
	-0.374153
	-0.349993
	-0.340007
	-0.317136
	-0.307795
	-0.281702
	-0.274615
	-0.259153
	-0.257221
	-0.244013
	-0.242081
	-0.229196
	-0.225330
	-0.212767
	-0.209224
	-0.190218
	-0.186030
	-0.167991
	-0.169280
	-0.168313
	-0.166703
	-0.161549
	-0.157361
	-0.153818
	-0.152207
	-0.152851
	-0.155106
	-0.157039
	-0.158005
	-0.156395
	-0.154784
	-0.158650
	-0.157683
	-0.157361
	-0.148019
	-0.136423
	-0.128692
	-0.123860
	-0.119994
	-0.125793
	-0.121927
	-0.127081
	-0.121927
	-0.125793
	-0.123860
	-0.128370
	-0.126115
	-0.133202
	-0.132235
	-0.138356
	-0.136101
	-0.140611
	-0.139000
	-0.139322
	-0.133524
	-0.126115
	-0.119350
	-0.116129
	-0.110331
	-0.117095
	-0.113230
	-0.113230
	-0.108076
	-0.108398
	-0.107754
	-0.109686
	-0.111619
	-0.116451
	-0.117417
	-0.120317
	-0.122894
	-0.119672
	-0.119672
	-0.113874
	-0.111619
	-0.097123
	-0.091003
	-0.081339
	-0.083916
	-0.082950
	-0.085205
	-0.075863
	-0.078440
	-0.073930
	-0.077796
	-0.076829
	-0.081017
	-0.082305
	-0.089714
	-0.087782
	-0.093580
	-0.084560
	-0.087137
	-0.081661
	-0.079084
	-0.063622
	-0.060723
	-0.051059
	-0.051703
	-0.045261
	-0.045583
	-0.040429
	-0.043972
	-0.043328
	-0.043972
	-0.039785
	-0.041073
	-0.043650
	-0.045905
	-0.042040
	-0.044939
	-0.042040
	-0.045261
	-0.042362
	-0.037530
	-0.026577
	-0.017880
	-0.014337
	-0.006606
	-0.007894
	-0.001774
	-0.000807
	0.006602
	0.007246
	0.013689
	0.011112
	0.014333
	0.006280
	0.011756
	0.009179
	0.015299
	0.014655
	0.022064
	0.022708
	0.035915
	0.041069
	0.033983
	0.026574
	0.020775
	0.012078
	0.003058
	-0.004028
	-0.008216
	-0.017558
	-0.019813
	-0.030443
	-0.034308
	-0.043328
	-0.049448
	-0.058468
	-0.068776
	-0.078440
	-0.083594
	-0.088104
	-0.086815
	-0.083272
	-0.084238
	-0.081017
	-0.086171
	-0.091003
	-0.096801
	-0.097768
	-0.099700
	-0.103566
	-0.109042
	-0.112263
	-0.120317
	-0.126115
	-0.136101
	-0.140611
	-0.149308
	-0.148342
	-0.152851
	-0.151885
	-0.155106
	-0.148342
	-0.149630
	-0.139966
	-0.145442
	-0.149630
	-0.152529
	-0.151885
	-0.153818
	-0.152529
	-0.153173
	-0.147375
	-0.149630
	-0.150274
	-0.154140
	-0.156395
	-0.158328
	-0.152851
	-0.148986
	-0.143188
	-0.136423
	-0.121605
	-0.109042
	-0.090681
	-0.073930
	-0.061367
	0.030439
	0.132876
	0.304570
	0.454682
	0.651824
	0.806769
	0.987161
	1.112469
	1.229403
	1.297372
	1.347302
	1.366308
	1.372751
	1.368563
	1.318311
	1.283521
	1.194613
	1.142428
	1.046755
	0.984906
	0.893743
	0.835438
	0.758449
	0.704331
	0.616390
	0.556797
	0.471432
	0.407973
	0.320032
	0.258184
	0.180229
	0.123534
	0.048478
	0.009179
	-0.032376
	-0.052992
	-0.080373
	-0.101955
	-0.135134
	-0.170890
	-0.210834
	-0.245302
	-0.284279
	-0.309727
	-0.336464
	-0.360301
	-0.384461
	-0.391870
	-0.400889
	-0.392514
	-0.393158
	-0.372220
	-0.362878
	-0.335497
	-0.322290
	-0.286534
	-0.269784
	-0.245624
	-0.240470
	-0.228551
	-0.222431
	-0.208257
	-0.204392
	-0.196339
	-0.195372
	-0.186675
	-0.187963
	-0.183131
	-0.183453
	-0.185386
	-0.184098
	-0.182487
	-0.177977
	-0.172501
	-0.165736
	-0.156395
	-0.149952
	-0.145765
	-0.140288
	-0.142865
	-0.135456
	-0.138678
	-0.136101
	-0.138678
	-0.132879
	-0.133846
	-0.131269
	-0.137389
	-0.136101
	-0.141899
	-0.141255
	-0.143832
	-0.143188
	-0.142221
	-0.137389
	-0.130947
	-0.122894
	-0.119672
	-0.114518
	-0.121605
	-0.117417
	-0.120317
	-0.118062
	-0.120317
	-0.118384
	-0.122249
	-0.120961
	-0.129658
	-0.128370
	-0.135134
	-0.133202
	-0.135779
	-0.129336
	-0.127725
	-0.121605
	-0.115162
	-0.106465
	-0.104532
	-0.100022
	-0.106143
	-0.102599
	-0.102277
	-0.095191
	-0.097123
	-0.095835
	-0.096157
	-0.091969
	-0.097445
	-0.096479
	-0.100667
	-0.101633
	-0.099378
	-0.095191
	-0.093258
	-0.087782
	-0.081339
	-0.074574
	-0.070387
	-0.068776
	-0.073286
	-0.071031
	-0.064911
	-0.063300
	-0.064266
	-0.062978
	-0.062656
	-0.057824
	-0.065555
	-0.065233
	-0.064266
	-0.063300
	-0.063622
	-0.062334
	-0.063622
	-0.054603
	-0.046871
	-0.036885
	-0.033664
	-0.027544
	-0.028188
	-0.023034
	-0.026255
	-0.022712
	-0.027866
	-0.022712
	-0.023356
	-0.021745
	-0.027544
	-0.024000
	-0.025933
	-0.020457
	-0.020779
	-0.012404
	-0.012082
	0.000803
	0.008534
	0.017232
	0.021742
	0.028184
	0.028506
	0.035271
	0.035271
	0.044291
	0.042358
	0.048800
	0.049123
	0.030439
	0.017232
	0.005635
	-0.002418
	-0.013692
	-0.023356
	-0.028510
	-0.031731
	-0.033020
	-0.028832
	-0.030443
	-0.029477
	-0.033342
	-0.041717
	-0.049126
	-0.055891
	-0.063300
	-0.065877
	-0.075863
	-0.078440
	-0.088748
	-0.094224
	-0.103888
	-0.106465
	-0.117417
	-0.115485
	-0.121605
	-0.120317
	-0.121605
	-0.115162
	-0.117417
	-0.113230
	-0.120961
	-0.122571
	-0.131591
	-0.128048
	-0.131913
	-0.135134
	-0.141577
	-0.143832
	-0.153173
	-0.152851
	-0.160905
	-0.164126
	-0.171535
	-0.170568
	-0.172823
	-0.169924
	-0.167669
	-0.151241
	-0.147053
	-0.136101
	-0.140288
	-0.138356
	-0.139000
	-0.131269
	-0.130625
	-0.124182
	-0.125471
	-0.117417
	-0.114840
	-0.101955
	-0.094546
	-0.076507
	0.002414
	0.112260
	0.270102
	0.435354
	0.623799
	0.796138
	0.969766
	1.112469
	1.232302
	1.313479
	1.359865
	1.390146
	1.389824
	1.391756
	1.333129
	1.298339
	1.203632
	1.145971
	1.035480
	0.978786
	0.873771
	0.822875
	0.736867
	0.693057
	0.603183
	0.556152
	0.469178
	0.423757
	0.332917
	0.280410
	0.198912
	0.148982
	0.072638
	0.029151
	-0.017236
	-0.044939
	-0.084560
	-0.111941
	-0.151885
	-0.184420
	-0.229840
	-0.263985
	-0.302963
	-0.327766
	-0.350960
	-0.359335
	-0.378985
	-0.375763
	-0.384461
	-0.377052
	-0.373508
	-0.352248
	-0.340329
	-0.318103
	-0.307795
	-0.282347
	-0.275260
	-0.259475
	-0.257221
	-0.244658
	-0.242725
	-0.229518
	-0.227585
	-0.213411
	-0.209546
	-0.190862
	-0.186675
	-0.169924
	-0.169924
	-0.168313
	-0.168958
	-0.160905
	-0.159294
	-0.153173
	-0.154784
	-0.150274
	-0.157039
	-0.155751
	-0.158972
	-0.155428
	-0.158972
	-0.154140
	-0.159294
	-0.152851
	-0.150596
	-0.134490
	-0.130302
	-0.120639
	-0.122571
	-0.121605
	-0.123216
	-0.119994
	-0.123860
	-0.122894
	-0.123860
	-0.125793
	-0.125471
	-0.131269
	-0.132879
	-0.135456
	-0.137711
	-0.137067
	-0.137389
	-0.139322
	-0.132557
	-0.128048
	-0.119028
	-0.115485
	-0.111619
	-0.117417
	-0.112585
	-0.114840
	-0.107754
	-0.111297
	-0.105499
	-0.111619
	-0.109042
	-0.116773
	-0.116451
	-0.121605
	-0.123216
	-0.123538
	-0.116773
	-0.116451
	-0.109042
	-0.099700
	-0.088426
	-0.083594
	-0.080051
	-0.082950
	-0.081661
	-0.078118
	-0.076185
	-0.074574
	-0.074252
	-0.074897
	-0.080051
	-0.081661
	-0.087460
	-0.086493
	-0.091969
	-0.086171
	-0.086171
	-0.080373
	-0.079728
	-0.061367
	-0.060079
	-0.048482
	-0.052025
	-0.045583
	-0.043328
	-0.040751
	-0.043006
	-0.042040
	-0.043972
	-0.038818
	-0.040751
	-0.044617
	-0.043328
	-0.044294
	-0.042362
	-0.043972
	-0.043972
	-0.044939
	-0.034308
	-0.026577
	-0.016591
	-0.015947
	-0.008216
	-0.009505
	-0.002418
	0.000481
	0.007890
	0.006924
	0.014333
	0.014011
	0.014011
	0.010145
	0.011756
	0.010789
	0.015621
	0.016588
	0.023352
	0.026252
	0.034949
	0.046223
	0.033016
	0.031083
	0.019165
	0.015943
	0.004025
	-0.001129
	-0.009827
	-0.013048
	-0.024323
	-0.025611
	-0.035919
	-0.041717
	-0.051059
	-0.055891
	-0.071997
	-0.072642
	-0.084238
	-0.083594
	-0.089714
	-0.081661
	-0.084882
	-0.079406
	-0.088104
	-0.089070
	-0.097768
	-0.096479
	-0.099700
	-0.102277
	-0.107754
	-0.112263
	-0.119994
	-0.125471
	-0.133846
	-0.140288
	-0.146731
	-0.149952
	-0.149630
	-0.152207
	-0.150919
	-0.147375
	-0.143510
	-0.141577
	-0.139322
	-0.149952
	-0.148342
	-0.153818
	-0.151885
	-0.154784
	-0.153173
	-0.153496
	-0.147697
	-0.154462
	-0.153173
	-0.158972
	-0.156717
	-0.155106
	-0.149630
	-0.145442
	-0.134168
	-0.123860
	-0.106143
	-0.091003
	-0.074897
	-0.061367
	0.017232
	0.129332
	0.282987
	0.446951
	0.632819
	0.798393
	0.971055
	1.106993
	1.219739
	1.299305
	1.342148
	1.368563
	1.372106
	1.371784
	1.323465
	1.288997
	1.197834
	1.152414
	1.049332
	0.993281
	0.896643
	0.844780
	0.760704
	0.715606
	0.618967
	0.569360
	0.475298
	0.418281
	0.325186
	0.268492
	0.185705
	0.131265
	0.054277
	0.011434
	-0.026255
	-0.050093
	-0.075541
	-0.100345
	-0.130302
	-0.170568
	-0.206002
	-0.244336
	-0.279125
	-0.309405
	-0.331310
	-0.359657
	-0.378662
	-0.394125
	-0.398634
	-0.393480
	-0.391225
	-0.371576
	-0.362556
	-0.336786
	-0.321646
	-0.287823
	-0.270428
	-0.246913
	-0.242403
	-0.226619
	-0.224364
	-0.207935
	-0.204392
	-0.195372
	-0.193117
	-0.187963
	-0.187963
	-0.185064
	-0.184420
	-0.184098
	-0.184420
	-0.182165
	-0.177333
	-0.172823
	-0.163159
	-0.158328
	-0.149630
	-0.144798
	-0.141255
	-0.140933
	-0.135456
	-0.137067
	-0.133202
	-0.138678
	-0.132235
	-0.133846
	-0.131913
	-0.137389
	-0.136745
	-0.141577
	-0.140933
	-0.144476
	-0.141255
	-0.142543
	-0.136101
	-0.129336
	-0.123538
	-0.118706
	-0.116773
	-0.119672
	-0.118706
	-0.117739
	-0.116773
	-0.120317
	-0.121283
	-0.121283
	-0.124182
	-0.126759
	-0.130947
	-0.131591
	-0.135134
	-0.133202
	-0.133524
	-0.125471
	-0.124504
	-0.110975
	-0.110331
	-0.100022
	-0.101955
	-0.101633
	-0.102599
	-0.099700
	-0.097445
	-0.094868
	-0.096157
	-0.096479
	-0.091325
	-0.097123
	-0.095191
	-0.100989
	-0.101955
	-0.100667
	-0.096157
	-0.094546
	-0.086815
	-0.080695
	-0.074574
	-0.070065
	-0.068132
	-0.070709
	-0.071997
	-0.064266
	-0.065555
	-0.062656
	-0.064266
	-0.059112
	-0.061689
	-0.062656
	-0.067165
	-0.062334
	-0.066843
	-0.061367
	-0.066199
	-0.060401
	-0.057824
	-0.041717
	-0.038818
	-0.031087
	-0.030765
	-0.025289
	-0.025611
	-0.021101
	-0.024323
	-0.023034
	-0.023678
	-0.019813
	-0.021745
	-0.024645
	-0.025933
	-0.023034
	-0.022390
	-0.018202
	-0.012404
	-0.009827
	0.001770
	0.011756
	0.017876
	0.020453
	0.027862
	0.026574
	0.035593
	0.034305
	0.044935
	0.040747
	0.049767
	0.048156
	0.032694
	0.014655
	0.006924
	-0.003706
	-0.012726
	-0.021423
	-0.029477
	-0.030121
	-0.033664
	-0.027866
	-0.029799
	-0.028510
	-0.033664
	-0.039463
	-0.052670
	-0.052348
	-0.063944
	-0.064588
	-0.076829
	-0.078118
	-0.087782
	-0.094546
	-0.104532
	-0.106143
	-0.118062
	-0.115485
	-0.120961
	-0.118706
	-0.121927
	-0.115485
	-0.115162
	-0.113230
	-0.118384
	-0.122571
	-0.128048
	-0.128048
	-0.129014
	-0.134168
	-0.137389
	-0.145442
	-0.148342
	-0.156717
	-0.157683
	-0.166381
	-0.168313
	-0.173790
	-0.170890
	-0.174112
	-0.164448
	-0.155106
	-0.142543
	-0.140611
	-0.135779
	-0.140288
	-0.136745
	-0.135456
	-0.127403
	-0.128370
	-0.120961
	-0.119672
	-0.111619
	-0.104854
	-0.092614
	-0.078440
	-0.007894
	0.104851
	0.253996
	0.425368
	0.607049
	0.787119
	0.955914
	1.106671
	1.224893
	1.309935
	1.359543
	1.387891
	1.392078
	1.391434
	1.339571
	1.301238
	1.211363
	1.150159
	1.046433
	0.982007
	0.881825
	0.828029
	0.741054
	0.701754
	0.607693
	0.563561
	0.474976
	0.431489
	0.338716
	0.287819
	0.203422
	0.157035
	0.074893
	0.033983
	-0.014981
	-0.042040
	-0.079728
	-0.107754
	-0.148019
	-0.179910
	-0.226941
	-0.259153
	-0.299741
	-0.323901
	-0.346128
	-0.358046
	-0.376408
	-0.375763
	-0.381884
	-0.376085
	-0.371254
	-0.354181
	-0.339041
	-0.320358
	-0.307150
	-0.283635
	-0.272038
	-0.262052
	-0.255288
	-0.247557
	-0.239826
	-0.231773
	-0.222753
	-0.217277
	-0.206324
	-0.193439
	-0.181521
	-0.174756
	-0.166703
	-0.171857
	-0.165092
	-0.165092
	-0.158328
	-0.154462
	-0.150274
	-0.153818
	-0.151885
	-0.158650
	-0.157361
	-0.156073
	-0.155106
	-0.154784
	-0.155428
	-0.154784
	-0.147375
	-0.134812
	-0.129980
	-0.121283
	-0.125471
	-0.120961
	-0.125148
	-0.120639
	-0.123538
	-0.123538
	-0.124504
	-0.124826
	-0.129336
	-0.129658
	-0.136745
	-0.133202
	-0.139644
	-0.136423
	-0.138034
	-0.135779
	-0.133202
	-0.122249
	-0.120317
	-0.111619
	-0.114196
	-0.115162
	-0.113874
	-0.114196
	-0.106465
	-0.108398
	-0.105821
	-0.110653
	-0.110653
	-0.117417
	-0.115807
	-0.122249
	-0.119350
	-0.123216
	-0.116451
	-0.115162
	-0.109042
	-0.100022
	-0.089070
	-0.083272
	-0.081017
	-0.083916
	-0.081339
	-0.079084
	-0.075219
	-0.073930
	-0.076185
	-0.074574
	-0.080695
	-0.081339
	-0.086171
	-0.087137
	-0.092291
	-0.084882
	-0.087137
	-0.078440
	-0.080051
	-0.062978
	-0.057180
	-0.048804
	-0.049126
	-0.046549
	-0.042362
	-0.042362
	-0.042040
	-0.043328
	-0.043006
	-0.041073
	-0.039463
	-0.047516
	-0.042040
	-0.044617
	-0.040107
	-0.045261
	-0.043650
	-0.042684
	-0.036241
	-0.024967
	-0.017880
	-0.012726
	-0.008538
	-0.004995
	-0.005317
	0.002736
	0.004669
	0.011112
	0.010789
	0.016910
	0.013366
	0.011434
	0.009501
	0.014011
	0.011756
	0.018520
	0.020453
	0.026252
	0.035593
	0.046868
	0.036882
	0.028506
	0.022386
	0.012722
	0.005313
	-0.004028
	-0.005639
	-0.015947
	-0.018202
	-0.024645
	-0.033020
	-0.040107
	-0.050093
	-0.055247
	-0.068776
	-0.074252
	-0.083594
	-0.082950
	-0.089070
	-0.080051
	-0.085205
	-0.079728
	-0.087137
	-0.090037
	-0.096157
	-0.096157
	-0.097768
	-0.100667
	-0.105821
	-0.111619
	-0.117417
	-0.129336
	-0.132235
	-0.143510
	-0.144476
	-0.150274
	-0.148664
	-0.152851
	-0.150274
	-0.147697
	-0.145765
	-0.142865
	-0.140933
	-0.148342
	-0.150919
	-0.149952
	-0.153173
	-0.151241
	-0.155428
	-0.148986
	-0.151563
	-0.151563
	-0.156717
	-0.154462
	-0.158972
	-0.151241
	-0.150919
	-0.143188
	-0.135456
	-0.123860
	-0.108398
	-0.092936
	-0.075863
	-0.063300
	0.004991
	0.121923
	0.264626
	0.436643
	0.613491
	0.788407
	0.955270
	1.097007
	1.210397
	1.292540
	1.339893
	1.369207
	1.371462
	1.373395
	1.327652
	1.289641
	1.206209
	1.154024
	1.059962
	1.000368
	0.904696
	0.850900
	0.768435
	0.719472
	0.628631
	0.571614
	0.482385
	0.424080
	0.330985
	0.273646
	0.190537
	0.137386
	0.060075
	0.015621
	-0.022390
	-0.046227
	-0.073286
	-0.092291
	-0.129014
	-0.159294
	-0.205680
	-0.236604
	-0.280092
	-0.305540
	-0.332920
	-0.355791
	-0.380595
	-0.391548
	-0.400567
	-0.393158
	-0.393480
	-0.373831
	-0.364167
	-0.338074
	-0.322290
	-0.288467
	-0.270428
	-0.248845
	-0.243047
	-0.229196
	-0.225652
	-0.208257
	-0.206324
	-0.196339
	-0.195050
	-0.187963
	-0.187963
	-0.183131
	-0.185386
	-0.182809
	-0.187963
	-0.181199
	-0.179266
	-0.171535
	-0.162515
	-0.155751
	-0.148019
	-0.144798
	-0.141577
	-0.141255
	-0.136101
	-0.137711
	-0.133524
	-0.139644
	-0.131269
	-0.134490
	-0.129658
	-0.136745
	-0.136745
	-0.140933
	-0.140611
	-0.143832
	-0.141577
	-0.140933
	-0.136423
	-0.127403
	-0.124826
	-0.116129
	-0.119672
	-0.117417
	-0.121927
	-0.117739
	-0.120317
	-0.118384
	-0.119994
	-0.120639
	-0.124182
	-0.127081
	-0.130625
	-0.129980
	-0.133202
	-0.135779
	-0.128370
	-0.128370
	-0.119028
	-0.114840
	-0.105177
	-0.104210
	-0.100667
	-0.104210
	-0.101311
	-0.100667
	-0.095191
	-0.096157
	-0.094546
	-0.096801
	-0.093902
	-0.096479
	-0.098412
	-0.098412
	-0.102922
	-0.097123
	-0.097768
	-0.091003
	-0.090359
	-0.078762
	-0.077474
	-0.068776
	-0.069742
	-0.069420
	-0.071675
	-0.064588
	-0.063622
	-0.062011
	-0.064266
	-0.062334
	-0.058468
	-0.066521
	-0.063300
	-0.064911
	-0.061367
	-0.063944
	-0.062011
	-0.062011
	-0.055891
	-0.046227
	-0.037208
	-0.032376
	-0.026900
	-0.028832
	-0.022390
	-0.024000
	-0.021423
	-0.024645
	-0.023034
	-0.019491
	-0.023034
	-0.024000
	-0.026255
	-0.023034
	-0.023034
	-0.017236
	-0.015947
	-0.007250
	-0.004028
	0.012400
	0.014655
	0.024641
	0.025929
	0.029151
	0.033983
	0.038170
	0.044291
	0.043646
	0.049123
	0.050411
	0.034305
	0.018520
	0.008212
	-0.001774
	-0.013048
	-0.023356
	-0.026577
	-0.033986
	-0.031731
	-0.030443
	-0.028510
	-0.029154
	-0.031409
	-0.038174
	-0.048804
	-0.053314
	-0.059434
	-0.065877
	-0.074574
	-0.075219
	-0.088104
	-0.092614
	-0.104532
	-0.106143
	-0.116451
	-0.115807
	-0.121605
	-0.116773
	-0.121927
	-0.112263
	-0.114840
	-0.111297
	-0.117417
	-0.123538
	-0.126759
	-0.129336
	-0.129336
	-0.133846
	-0.137711
	-0.142543
	-0.148664
	-0.156395
	-0.157361
	-0.167025
	-0.169602
	-0.172823
	-0.172823
	-0.170246
	-0.164448
	-0.153818
	-0.142865
	-0.141255
	-0.135134
	-0.141899
	-0.136423
	-0.135134
	-0.129014
	-0.126115
	-0.121605
	-0.120639
	-0.112263
	-0.106787
	-0.093258
	-0.079728
	-0.020779
	0.098086
	0.232413
	0.416993
	0.585466
	0.776811
	0.936265
	1.097974
	1.213296
	1.306392
	1.353423
	1.389179
	1.391434
	1.392723
	1.344403
	1.303170
	1.218128
	1.153058
	1.052231
	0.987805
	0.888267
	0.832861
	0.747819
	0.705620
	0.616068
	0.569037
	0.482063
	0.437609
	0.347735
	0.295228
	0.211797
	0.164122
	0.083590
	0.038492
	-0.009505
	-0.039140
	-0.075541
	-0.106465
	-0.143510
	-0.177977
	-0.222109
	-0.257865
	-0.296520
	-0.323257
	-0.343551
	-0.357402
	-0.371576
	-0.378018
	-0.377696
	-0.377696
	-0.370609
	-0.354503
	-0.341940
	-0.320680
	-0.309083
	-0.287178
	-0.275582
	-0.263019
	-0.257865
	-0.245624
	-0.243047
	-0.228229
	-0.226296
	-0.213733
	-0.208257
	-0.189574
	-0.182487
	-0.170246
	-0.165736
	-0.167669
	-0.165092
	-0.162193
	-0.157683
	-0.156395
	-0.150919
	-0.155106
	-0.152529
	-0.159938
	-0.156395
	-0.157683
	-0.154140
	-0.156395
	-0.156395
	-0.153173
	-0.148019
	-0.134490
	-0.128370
	-0.121927
	-0.122894
	-0.123216
	-0.123538
	-0.121605
	-0.124826
	-0.122249
	-0.126437
	-0.123860
	-0.130625
	-0.129980
	-0.135134
	-0.134490
	-0.139322
	-0.137711
	-0.139000
	-0.133846
	-0.134168
	-0.121927
	-0.119672
	-0.113230
	-0.111297
	-0.114840
	-0.113230
	-0.114840
	-0.107754
	-0.109686
	-0.107431
	-0.109364
	-0.110008
	-0.115162
	-0.114840
	-0.122894
	-0.120639
	-0.123216
	-0.117095
	-0.114840
	-0.108398
	-0.100022
	-0.087137
	-0.084882
	-0.078762
	-0.084560
	-0.080695
	-0.080695
	-0.074897
	-0.075863
	-0.073608
	-0.078118
	-0.076507
	-0.085527
	-0.082628
	-0.089070
	-0.089392
	-0.087782
	-0.082950
	-0.081339
	-0.076507
	-0.065233
	-0.055569
	-0.050737
	-0.049126
	-0.045261
	-0.044939
	-0.040107
	-0.043972
	-0.040107
	-0.044617
	-0.040429
	-0.041395
	-0.043650
	-0.047516
	-0.040751
	-0.046549
	-0.042040
	-0.043972
	-0.040751
	-0.038818
	-0.024000
	-0.019813
	-0.011115
	-0.013048
	-0.005639
	-0.004995
	0.003703
	0.004991
	0.010145
	0.013044
	0.016910
	0.012400
	0.012078
	0.008857
	0.013689
	0.014977
	0.018198
	0.022708
	0.027862
	0.034949
	0.045257
	0.036237
	0.030117
	0.022708
	0.014655
	0.006602
	-0.001451
	-0.006283
	-0.013692
	-0.021101
	-0.024323
	-0.032698
	-0.040429
	-0.047516
	-0.055891
	-0.065555
	-0.075541
	-0.080695
	-0.085527
	-0.086493
	-0.082628
	-0.082628
	-0.082305
	-0.083272
	-0.092936
	-0.091647
	-0.100345
	-0.096157
	-0.105177
	-0.106143
	-0.111941
	-0.118384
	-0.128048
	-0.132235
	-0.140933
	-0.144154
	-0.147697
	-0.149630
	-0.150919
	-0.150274
	-0.144476
	-0.145765
	-0.139322
	-0.141899
	-0.146409
	-0.151885
	-0.148664
	-0.154462
	-0.151241
	-0.155751
	-0.148986
	-0.150596
	-0.151563
	-0.154140
	-0.154462
	-0.158328
	-0.152529
	-0.152207
	-0.143188
	-0.137067
	-0.122894
	-0.109686
	-0.092936
	-0.077796
	-0.063622
	-0.008860
	0.115803
	0.244010
	0.426012
	0.590942
	0.776488
	0.933365
	1.087665
	1.198800
	1.286098
	1.337638
	1.362765
	1.373395
	1.370174
	1.337316
	1.290285
	1.217162
	1.154668
	1.069626
	0.998758
	0.914360
	0.851222
	0.774878
	0.721082
	0.636040
	0.577091
	0.487861
	0.431811
	0.335494
	0.282665
	0.192792
	0.148338
	0.062974
	0.022708
	-0.023678
	-0.041717
	-0.074897
	-0.089392
	-0.129658
	-0.155106
	-0.205036
	-0.230806
	-0.275904
	-0.301996
	-0.332920
	-0.352570
	-0.380595
	-0.391870
	-0.400567
	-0.395735
	-0.394125
	-0.375763
	-0.365455
	-0.340007
	-0.322290
	-0.290078
	-0.271716
	-0.249812
	-0.241758
	-0.228551
	-0.223719
	-0.209224
	-0.205680
	-0.197305
	-0.195372
	-0.188930
	-0.189574
	-0.185708
	-0.186353
	-0.184420
	-0.188607
	-0.181199
	-0.181199
	-0.170890
	-0.165414
	-0.154462
	-0.150274
	-0.144154
	-0.140933
	-0.140933
	-0.134812
	-0.136745
	-0.133202
	-0.137067
	-0.135779
	-0.134490
	-0.132879
	-0.138678
	-0.135134
	-0.142221
	-0.139966
	-0.143510
	-0.141255
	-0.142865
	-0.135779
	-0.129658
	-0.122249
	-0.119350
	-0.115807
	-0.120961
	-0.118062
	-0.121605
	-0.115485
	-0.122249
	-0.118062
	-0.124182
	-0.123538
	-0.130302
	-0.128048
	-0.132879
	-0.133524
	-0.136423
	-0.129014
	-0.128370
	-0.120639
	-0.113552
	-0.104854
	-0.102277
	-0.100989
	-0.103566
	-0.104532
	-0.099378
	-0.099056
	-0.094868
	-0.098412
	-0.095835
	-0.094224
	-0.095835
	-0.098734
	-0.098412
	-0.103566
	-0.097768
	-0.099378
	-0.091647
	-0.091969
	-0.078118
	-0.078118
	-0.068132
	-0.072642
	-0.070065
	-0.072642
	-0.065555
	-0.065877
	-0.062978
	-0.067165
	-0.060401
	-0.063944
	-0.062334
	-0.069098
	-0.062978
	-0.063944
	-0.062011
	-0.063300
	-0.061689
	-0.058468
	-0.044294
	-0.037852
	-0.031087
	-0.030121
	-0.027866
	-0.023356
	-0.025289
	-0.022390
	-0.027222
	-0.024000
	-0.023356
	-0.021101
	-0.026900
	-0.025611
	-0.026577
	-0.022390
	-0.022068
	-0.014014
	-0.012404
	-0.000807
	0.008534
	0.017554
	0.020131
	0.025929
	0.024319
	0.034949
	0.033016
	0.043002
	0.040747
	0.048800
	0.047190
	0.035271
	0.015943
	0.006924
	-0.003706
	-0.011437
	-0.022390
	-0.027222
	-0.031731
	-0.033342
	-0.028510
	-0.031731
	-0.027222
	-0.035275
	-0.038174
	-0.050737
	-0.053958
	-0.063622
	-0.065877
	-0.074897
	-0.076185
	-0.087460
	-0.091003
	-0.101311
	-0.105499
	-0.113552
	-0.118062
	-0.116451
	-0.120317
	-0.118062
	-0.117417
	-0.113874
	-0.114518
	-0.117095
	-0.124182
	-0.126115
	-0.130625
	-0.127725
	-0.135456
	-0.136423
	-0.144476
	-0.149952
	-0.154140
	-0.159294
	-0.162515
	-0.169924
	-0.171535
	-0.172823
	-0.170246
	-0.168636
	-0.152851
	-0.149630
	-0.136745
	-0.140933
	-0.138678
	-0.141577
	-0.133846
	-0.131913
	-0.125793
	-0.126759
	-0.118384
	-0.119994
	-0.105499
	-0.099056
	-0.079084
	-0.037530
	0.091966
	0.210509
	0.406363
	0.565816
	0.766180
	0.921124
	1.087021
	1.206209
	1.298016
	1.353423
	1.382415
	1.394011
	1.387569
	1.352134
	1.301882
	1.229403
	1.153702
	1.063506
	0.987805
	0.899220
	0.832217
	0.756839
	0.704976
	0.623155
	0.570970
	0.487539
	0.443085
	0.352245
	0.301349
	0.215018
	0.169276
	0.084234
	0.041069
	-0.012726
	-0.035275
	-0.078762
	-0.100989
	-0.146409
	-0.172501
	-0.222431
	-0.252711
	-0.297486
	-0.318425
	-0.345161
	-0.352892
	-0.372542
	-0.375763
	-0.378018
	-0.380595
	-0.370609
	-0.360946
	-0.341940
	-0.327444
	-0.307150
	-0.292977
	-0.272683
	-0.268173
	-0.256576
	-0.251422
	-0.242403
	-0.233061
	-0.225330
	-0.217921
	-0.207291
	-0.194084
	-0.183131
	-0.170246
	-0.169280
	-0.167347
	-0.170246
	-0.161227
	-0.160905
	-0.154140
	-0.153496
	-0.150919
	-0.157039
	-0.156073
	-0.162837
	-0.157683
	-0.158005
	-0.156073
	-0.158328
	-0.153496
	-0.149630
	-0.136101
	-0.127725
	-0.123860
	-0.119994
	-0.126759
	-0.121283
	-0.125793
	-0.120639
	-0.124182
	-0.122571
	-0.127081
	-0.126437
	-0.132557
	-0.133846
	-0.137067
	-0.139000
	-0.137711
	-0.140288
	-0.137067
	-0.134490
	-0.124504
	-0.122894
	-0.112908
	-0.116451
	-0.112908
	-0.117095
	-0.112908
	-0.108720
	-0.109364
	-0.106787
	-0.111297
	-0.111941
	-0.118062
	-0.116773
	-0.121605
	-0.120961
	-0.123860
	-0.116451
	-0.114840
	-0.108398
	-0.098090
	-0.091969
	-0.080695
	-0.083594
	-0.081017
	-0.084882
	-0.078762
	-0.077796
	-0.073930
	-0.076507
	-0.075541
	-0.082950
	-0.081339
	-0.088426
	-0.088104
	-0.091647
	-0.087460
	-0.084238
	-0.082950
	-0.079084
	-0.066843
	-0.058146
	-0.054280
	-0.048482
	-0.050093
	-0.042362
	-0.046227
	-0.040751
	-0.046227
	-0.043650
	-0.043006
	-0.039785
	-0.045583
	-0.044939
	-0.045261
	-0.042362
	-0.043328
	-0.043328
	-0.041395
	-0.039140
	-0.023678
	-0.020135
	-0.010793
	-0.012082
	-0.006283
	-0.005961
	0.002736
	0.003380
	0.007890
	0.008534
	0.015621
	0.010145
	0.012078
	0.008534
	0.012078
	0.014011
	0.017232
	0.019809
	0.024963
	0.033338
	0.046223
	0.038492
	0.029473
	0.023352
	0.011756
	0.006924
	-0.004028
	-0.007250
	-0.015947
	-0.020135
	-0.025933
	-0.032698
	-0.040107
	-0.047516
	-0.053314
	-0.067165
	-0.071675
	-0.081983
	-0.081017
	-0.087782
	-0.079084
	-0.084560
	-0.079084
	-0.087137
	-0.090037
	-0.097445
	-0.096801
	-0.100022
	-0.099378
	-0.107109
	-0.109686
	-0.118384
	-0.125793
	-0.131269
	-0.141577
	-0.146409
	-0.151563
	-0.148664
	-0.152851
	-0.151241
	-0.150274
	-0.144798
	-0.143188
	-0.141577
	-0.150274
	-0.150274
	-0.149630
	-0.150919
	-0.151563
	-0.153496
	-0.149630
	-0.148986
	-0.151563
	-0.155428
	-0.155106
	-0.160260
	-0.152207
	-0.152529
	-0.144798
	-0.139644
	-0.122571
	-0.117095
	-0.092291
	-0.087137
	-0.062978
	-0.025611
	0.109038
	0.219850
	0.418603
	0.565172
	0.770690
	0.912749
	1.083156
	1.186559
	1.282876
	1.331840
	1.363409
	1.372751
	1.371140
	1.337638
	1.291896
	1.222638
	1.155313
	1.078968
	1.001335
	0.922413
	0.854444
	0.780354
	0.725914
	0.639906
	0.582245
	0.493337
	0.437609
	0.340970
	0.287819
	0.197623
	0.153492
	0.065551
	0.026252
	-0.022712
	-0.039140
	-0.072642
	-0.086815
	-0.126115
	-0.152851
	-0.199882
	-0.230484
	-0.272038
	-0.301996
	-0.327766
	-0.353214
	-0.377052
	-0.393158
	-0.396702
	-0.397346
	-0.390259
	-0.383172
	-0.361268
	-0.346772
	-0.322290
	-0.295554
	-0.271716
	-0.251100
	-0.241758
	-0.232095
	-0.223397
	-0.211801
	-0.204714
	-0.197627
	-0.195372
	-0.186997
	-0.190540
	-0.183131
	-0.187319
	-0.184420
	-0.189252
	-0.181521
	-0.181843
	-0.172179
	-0.167347
	-0.154462
	-0.152207
	-0.141577
	-0.144476
	-0.139644
	-0.137067
	-0.136423
	-0.136101
	-0.138356
	-0.135456
	-0.132557
	-0.132235
	-0.134812
	-0.137711
	-0.141899
	-0.140288
	-0.143832
	-0.140933
	-0.144154
	-0.136423
	-0.130947
	-0.123538
	-0.119350
	-0.116773
	-0.120961
	-0.116129
	-0.120317
	-0.116129
	-0.119672
	-0.119028
	-0.121605
	-0.123860
	-0.125793
	-0.129014
	-0.131913
	-0.133202
	-0.135779
	-0.132879
	-0.125471
	-0.123860
	-0.110975
	-0.110653
	-0.099700
	-0.103888
	-0.103888
	-0.104854
	-0.101311
	-0.098734
	-0.095191
	-0.097768
	-0.094868
	-0.095191
	-0.095191
	-0.098734
	-0.101633
	-0.100345
	-0.102599
	-0.096157
	-0.095191
	-0.087782
	-0.082305
	-0.075219
	-0.071353
	-0.068132
	-0.072320
	-0.069098
	-0.070065
	-0.062011
	-0.065555
	-0.063300
	-0.062011
	-0.061689
	-0.062334
	-0.065555
	-0.063944
	-0.064588
	-0.062656
	-0.064266
	-0.060723
	-0.060401
	-0.043328
	-0.041395
	-0.029477
	-0.032376
	-0.026900
	-0.026900
	-0.023678
	-0.024967
	-0.024000
	-0.026577
	-0.020457
	-0.024323
	-0.024645
	-0.027544
	-0.024967
	-0.022390
	-0.019168
	-0.014659
	-0.010793
	-0.001451
	0.008857
	0.017554
	0.020453
	0.027540
	0.024963
	0.034949
	0.034305
	0.042680
	0.042036
	0.047512
	0.049123
	0.036560
	0.018198
	0.008212
	-0.000807
	-0.012082
	-0.018202
	-0.028832
	-0.029799
	-0.036563
	-0.029477
	-0.033020
	-0.027544
	-0.034631
	-0.036241
	-0.050737
	-0.051059
	-0.062656
	-0.064911
	-0.073608
	-0.076185
	-0.085849
	-0.092291
	-0.101633
	-0.104210
	-0.113552
	-0.117739
	-0.117095
	-0.119672
	-0.118062
	-0.115162
	-0.113230
	-0.113230
	-0.116129
	-0.123860
	-0.126759
	-0.130947
	-0.128692
	-0.136423
	-0.137389
	-0.146087
	-0.148986
	-0.155106
	-0.158328
	-0.165092
	-0.169280
	-0.171213
	-0.172823
	-0.171213
	-0.168958
	-0.153496
	-0.148664
	-0.137067
	-0.142543
	-0.138356
	-0.141899
	-0.134168
	-0.133202
	-0.126759
	-0.125793
	-0.119672
	-0.118706
	-0.106143
	-0.098090
	-0.081339
	-0.046549
	0.082302
	0.191503
	0.394444
	0.541979
	0.752651
	0.901797
	1.075425
	1.195257
	1.291574
	1.347624
	1.380160
	1.392401
	1.388213
	1.356966
	1.303493
	1.237456
	1.157246
	1.072203
	0.991027
	0.906629
	0.836404
	0.762315
	0.709163
	0.630564
	0.574191
	0.493981
	0.446629
	0.358365
	0.304570
	0.219206
	0.175397
	0.090999
	0.046868
	-0.006928
	-0.031731
	-0.076507
	-0.094868
	-0.142865
	-0.165414
	-0.219532
	-0.245624
	-0.292655
	-0.313915
	-0.342584
	-0.350637
	-0.371576
	-0.374797
	-0.379951
	-0.380595
	-0.372542
	-0.362878
	-0.341296
	-0.329377
	-0.307795
	-0.294909
	-0.276226
	-0.267851
	-0.258509
	-0.251100
	-0.241758
	-0.234672
	-0.224041
	-0.216955
	-0.208257
	-0.191829
	-0.185708
	-0.170568
	-0.171857
	-0.167347
	-0.170246
	-0.162515
	-0.159938
	-0.153496
	-0.154462
	-0.150919
	-0.156073
	-0.155106
	-0.159616
	-0.156717
	-0.155751
	-0.157039
	-0.154140
	-0.155751
	-0.150596
	-0.138678
	-0.129014
	-0.125148
	-0.121283
	-0.126115
	-0.121605
	-0.124826
	-0.120961
	-0.121927
	-0.125148
	-0.124826
	-0.128692
	-0.129980
	-0.134812
	-0.136101
	-0.140611
	-0.139322
	-0.142543
	-0.135779
	-0.138034
	-0.124504
	-0.122571
	-0.113552
	-0.113230
	-0.113874
	-0.116129
	-0.112908
	-0.109686
	-0.109042
	-0.109364
	-0.111297
	-0.110008
	-0.116451
	-0.116451
	-0.120317
	-0.120961
	-0.123860
	-0.117417
	-0.116773
	-0.109042
	-0.103244
	-0.089392
	-0.085527
	-0.081017
	-0.084238
	-0.081983
	-0.081339
	-0.075541
	-0.078440
	-0.074574
	-0.079728
	-0.078762
	-0.084560
	-0.085849
	-0.090359
	-0.089392
	-0.091325
	-0.083916
	-0.084560
	-0.078440
	-0.068132
	-0.056535
	-0.051703
	-0.047838
	-0.046871
	-0.042362
	-0.043972
	-0.040429
	-0.044294
	-0.043328
	-0.042684
	-0.040429
	-0.044294
	-0.045261
	-0.045905
	-0.041717
	-0.047194
	-0.042684
	-0.044617
	-0.038818
	-0.027222
	-0.018202
	-0.015947
	-0.008216
	-0.008860
	-0.002740
	-0.002418
	0.005957
	0.006924
	0.011112
	0.013044
	0.015621
	0.008534
	0.012722
	0.011112
	0.014011
	0.017232
	0.020453
	0.025285
	0.033660
	0.044613
	0.041392
	0.032050
	0.024319
	0.015621
	0.006602
	0.002092
	-0.008538
	-0.011437
	-0.020457
	-0.023678
	-0.033986
	-0.038174
	-0.053314
	-0.053314
	-0.070387
	-0.073608
	-0.082305
	-0.082950
	-0.088104
	-0.080373
	-0.084882
	-0.076507
	-0.086493
	-0.088426
	-0.096479
	-0.097768
	-0.097768
	-0.101311
	-0.106465
	-0.111297
	-0.119350
	-0.123538
	-0.133202
	-0.139644
	-0.144798
	-0.149952
	-0.148664
	-0.151885
	-0.151241
	-0.148019
	-0.144798
	-0.143510
	-0.140288
	-0.149308
	-0.147697
	-0.153818
	-0.149308
	-0.155106
	-0.153496
	-0.153173
	-0.148986
	-0.153818
	-0.152207
	-0.157039
	-0.158328
	-0.154140
	-0.153818
	-0.143510
	-0.141255
	-0.123538
	-0.117739
	-0.092936
	-0.084882
	-0.063300
	-0.038496
	0.101629
	0.195046
	0.406040
	0.538757
	0.755550
	0.892133
	1.071559
	1.175607
	1.278044
	1.328297
	1.362765
	1.373395
	1.371462
	1.346658
	1.296406
	1.234235
	1.162722
	1.087665
	1.009388
	0.930466
	0.858309
	0.788085
	0.724948
	0.650214
	0.581923
	0.501390
	0.437287
	0.350634
	0.287819
	0.207287
	0.153492
	0.076503
	0.027218
	-0.016269
	-0.036885
	-0.068454
	-0.083594
	-0.122249
	-0.147697
	-0.195694
	-0.224686
	-0.269784
	-0.296198
	-0.329055
	-0.345161
	-0.377374
	-0.388004
	-0.398634
	-0.396702
	-0.392836
	-0.380917
	-0.365133
	-0.346450
	-0.326478
	-0.294909
	-0.275260
	-0.252389
	-0.243047
	-0.233383
	-0.226296
	-0.213089
	-0.208257
	-0.196983
	-0.198916
	-0.188930
	-0.190862
	-0.185708
	-0.188607
	-0.185708
	-0.190218
	-0.183131
	-0.184098
	-0.173145
	-0.171213
	-0.156073
	-0.154462
	-0.143832
	-0.145442
	-0.139644
	-0.139322
	-0.135779
	-0.138678
	-0.134490
	-0.139322
	-0.130947
	-0.134812
	-0.134812
	-0.138678
	-0.140288
	-0.144154
	-0.141255
	-0.146409
	-0.140288
	-0.140611
	-0.128370
	-0.127081
	-0.117095
	-0.117739
	-0.117739
	-0.120639
	-0.116773
	-0.120961
	-0.119028
	-0.121927
	-0.121283
	-0.124504
	-0.125793
	-0.129980
	-0.131913
	-0.134812
	-0.133524
	-0.130625
	-0.128048
	-0.121605
	-0.115485
	-0.107109
	-0.105177
	-0.099056
	-0.105177
	-0.101955
	-0.102922
	-0.096157
	-0.097768
	-0.095191
	-0.099056
	-0.091325
	-0.097768
	-0.095835
	-0.100345
	-0.100345
	-0.101955
	-0.096479
	-0.094546
	-0.088426
	-0.083272
	-0.073286
	-0.071031
	-0.067488
	-0.070709
	-0.071675
	-0.065877
	-0.065233
	-0.063944
	-0.063944
	-0.060401
	-0.061045
	-0.062011
	-0.065877
	-0.062656
	-0.063300
	-0.061689
	-0.063944
	-0.061367
	-0.058468
	-0.045261
	-0.039785
	-0.029799
	-0.031409
	-0.024967
	-0.025611
	-0.022068
	-0.024000
	-0.024323
	-0.025289
	-0.020135
	-0.024323
	-0.022390
	-0.028832
	-0.021423
	-0.025611
	-0.018202
	-0.017880
	-0.009505
	-0.004995
	0.010467
	0.014977
	0.023030
	0.023997
	0.029473
	0.031728
	0.035593
	0.041714
	0.042036
	0.046868
	0.047190
	0.038814
	0.018843
	0.008857
	-0.002096
	-0.008860
	-0.023034
	-0.026577
	-0.034308
	-0.033664
	-0.032376
	-0.030121
	-0.030765
	-0.030443
	-0.040751
	-0.044617
	-0.055247
	-0.058790
	-0.066843
	-0.071675
	-0.077796
	-0.081983
	-0.094546
	-0.098412
	-0.108076
	-0.112585
	-0.119350
	-0.118062
	-0.120317
	-0.119350
	-0.116451
	-0.112585
	-0.113230
	-0.115162
	-0.121927
	-0.126115
	-0.127403
	-0.129336
	-0.132879
	-0.137067
	-0.142221
	-0.149630
	-0.153173
	-0.159938
	-0.161871
	-0.172501
	-0.170890
	-0.174756
	-0.170568
	-0.171213
	-0.154140
	-0.148986
	-0.136423
	-0.140611
	-0.136745
	-0.140933
	-0.133202
	-0.131913
	-0.126115
	-0.125471
	-0.117417
	-0.120317
	-0.106143
	-0.102277
	-0.082305
	-0.061689
	0.077792
	0.167666
	0.383491
	0.516530
	0.741698
	0.878925
	1.068660
	1.179150
	1.288352
	1.342470
	1.383059
	1.392723
	1.391112
	1.363087
	1.310579
	1.244865
	1.166587
	1.081545
	0.997791
	0.916615
	0.841558
	0.772945
	0.712707
	0.638617
	0.578057
	0.504290
	0.447917
	0.368996
	0.304570
	0.230158
	0.177007
	0.099052
	0.047512
	0.000803
	-0.033020
	-0.068132
	-0.097445
	-0.137067
	-0.165414
	-0.213411
	-0.243691
	-0.288789
	-0.316492
	-0.340329
	-0.352892
	-0.369643
	-0.378985
	-0.379951
	-0.382528
	-0.372542
	-0.362878
	-0.342262
	-0.331632
	-0.308761
	-0.296520
	-0.275904
	-0.267851
	-0.257221
	-0.251100
	-0.241758
	-0.234672
	-0.224041
	-0.216310
	-0.210512
	-0.192795
	-0.186675
	-0.172501
	-0.169280
	-0.167347
	-0.169602
	-0.160582
	-0.161871
	-0.152529
	-0.154784
	-0.151563
	-0.156395
	-0.156717
	-0.162837
	-0.155428
	-0.159616
	-0.153496
	-0.158328
	-0.152851
	-0.151563
	-0.136101
	-0.131269
	-0.121927
	-0.121283
	-0.120961
	-0.120961
	-0.121927
	-0.120961
	-0.123860
	-0.125148
	-0.124504
	-0.128048
	-0.129980
	-0.132557
	-0.136745
	-0.135456
	-0.139322
	-0.136423
	-0.138678
	-0.133524
	-0.126759
	-0.118384
	-0.117095
	-0.110008
	-0.118062
	-0.113230
	-0.117417
	-0.110331
	-0.110653
	-0.106787
	-0.110653
	-0.108720
	-0.115485
	-0.116451
	-0.118062
	-0.121605
	-0.120639
	-0.119994
	-0.114518
	-0.112585
	-0.100345
	-0.094868
	-0.081661
	-0.083594
	-0.080051
	-0.085205
	-0.078440
	-0.077474
	-0.073930
	-0.075541
	-0.074252
	-0.079728
	-0.079406
	-0.086171
	-0.085527
	-0.089070
	-0.086493
	-0.084882
	-0.080373
	-0.078118
	-0.065877
	-0.058146
	-0.050737
	-0.048804
	-0.047838
	-0.042362
	-0.044294
	-0.041717
	-0.043328
	-0.043650
	-0.043006
	-0.039785
	-0.045583
	-0.044294
	-0.046871
	-0.042684
	-0.046227
	-0.043650
	-0.044294
	-0.038818
	-0.030443
	-0.017880
	-0.015625
	-0.008538
	-0.010471
	-0.004028
	-0.001129
	0.004347
	0.006280
	0.012400
	0.010467
	0.016588
	0.010145
	0.010467
	0.011434
	0.014655
	0.016266
	0.021097
	0.024963
	0.033660
	0.043002
	0.041392
	0.031083
	0.026252
	0.016266
	0.008534
	0.000481
	-0.004673
	-0.013048
	-0.017880
	-0.024323
	-0.031731
	-0.037530
	-0.048804
	-0.052025
	-0.065555
	-0.072642
	-0.079728
	-0.082950
	-0.086493
	-0.080051
	-0.082305
	-0.077151
	-0.084560
	-0.087137
	-0.096157
	-0.095191
	-0.097445
	-0.098090
	-0.107431
	-0.108398
	-0.121283
	-0.121927
	-0.135134
	-0.136423
	-0.147697
	-0.147697
	-0.152207
	-0.149308
	-0.153818
	-0.145120
	-0.148986
	-0.139000
	-0.142865
	-0.145120
	-0.150919
	-0.149308
	-0.152207
	-0.150596
	-0.154784
	-0.148986
	-0.152529
	-0.150919
	-0.154462
	-0.154140
	-0.158005
	-0.153496
	-0.151885
	-0.143510
	-0.139322
	-0.125148
	-0.116129
	-0.096157
	-0.083916
	-0.066199
	-0.044939
	0.092288
	0.180229
	0.395410
	0.522007
	0.744920
	0.876671
	1.062217
	1.165621
	1.273212
	1.324431
	1.360510
	1.372429
	1.372429
	1.350846
	1.298016
	1.241966
	1.167232
	1.095074
	1.013576
	0.938197
	0.862819
	0.795172
	0.730746
	0.658911
	0.587399
	0.509444
	0.443407
	0.359010
	0.292973
	0.214052
	0.157358
	0.083590
	0.030761
	-0.013692
	-0.036885
	-0.067165
	-0.082305
	-0.118706
	-0.146409
	-0.191185
	-0.224686
	-0.264307
	-0.295232
	-0.325189
	-0.346450
	-0.373508
	-0.391870
	-0.395413
	-0.400889
	-0.388971
	-0.385105
	-0.364167
	-0.350637
	-0.325189
	-0.299741
	-0.272683
	-0.254321
	-0.240470
	-0.234672
	-0.224364
	-0.215022
	-0.205036
	-0.198271
	-0.196339
	-0.188285
	-0.191185
	-0.184742
	-0.187963
	-0.184420
	-0.188607
	-0.182809
	-0.182809
	-0.171535
	-0.167025
	-0.157039
	-0.150596
	-0.145442
	-0.140288
	-0.142221
	-0.135779
	-0.137711
	-0.133524
	-0.137389
	-0.134490
	-0.135456
	-0.130302
	-0.137067
	-0.136423
	-0.140933
	-0.142221
	-0.143832
	-0.142865
	-0.142865
	-0.139322
	-0.129658
	-0.125471
	-0.116773
	-0.119350
	-0.117739
	-0.121605
	-0.116451
	-0.119672
	-0.118384
	-0.120317
	-0.119028
	-0.124504
	-0.124826
	-0.129014
	-0.130625
	-0.133202
	-0.135134
	-0.129014
	-0.129014
	-0.122249
	-0.116129
	-0.106787
	-0.103566
	-0.099378
	-0.104210
	-0.100345
	-0.105177
	-0.094868
	-0.097123
	-0.095513
	-0.094868
	-0.093902
	-0.094546
	-0.098090
	-0.098734
	-0.102277
	-0.100345
	-0.099378
	-0.092291
	-0.093902
	-0.081339
	-0.080051
	-0.070709
	-0.069420
	-0.070709
	-0.071997
	-0.066521
	-0.065877
	-0.061689
	-0.064911
	-0.062011
	-0.060079
	-0.063300
	-0.063944
	-0.063944
	-0.062656
	-0.063944
	-0.060401
	-0.064266
	-0.056535
	-0.050093
	-0.036563
	-0.033342
	-0.028510
	-0.027222
	-0.024645
	-0.023678
	-0.022390
	-0.023356
	-0.023678
	-0.021101
	-0.024000
	-0.023678
	-0.030121
	-0.023356
	-0.026577
	-0.019168
	-0.017880
	-0.007894
	-0.007572
	0.010789
	0.013044
	0.023997
	0.025285
	0.029151
	0.030117
	0.038492
	0.038492
	0.045257
	0.043002
	0.050089
	0.038814
	0.022386
	0.008857
	0.003058
	-0.010471
	-0.016914
	-0.026900
	-0.028832
	-0.032376
	-0.029477
	-0.028832
	-0.027222
	-0.029799
	-0.037208
	-0.045261
	-0.053314
	-0.058468
	-0.067165
	-0.069742
	-0.076507
	-0.083594
	-0.090359
	-0.099056
	-0.106143
	-0.110331
	-0.119672
	-0.117417
	-0.120639
	-0.118706
	-0.115807
	-0.112908
	-0.112908
	-0.112908
	-0.120961
	-0.124182
	-0.128370
	-0.129336
	-0.130302
	-0.137067
	-0.140288
	-0.148664
	-0.152207
	-0.158005
	-0.159616
	-0.170890
	-0.168313
	-0.174756
	-0.169602
	-0.169280
	-0.154462
	-0.147697
	-0.137067
	-0.139322
	-0.137067
	-0.140933
	-0.133524
	-0.131913
	-0.125471
	-0.126115
	-0.119994
	-0.120961
	-0.106787
	-0.103566
	-0.084238
	-0.069742
	0.068772
	0.151237
	0.369318
	0.495270
	0.727847
	0.859920
	1.056097
	1.168520
	1.280943
	1.338605
	1.379515
	1.393367
	1.390790
	1.371784
	1.311868
	1.256784
	1.168520
	1.092820
	1.002301
	0.924990
	0.844136
	0.780032
	0.714962
	0.647315
	0.581600
	0.508477
	0.452427
	0.373828
	0.311335
	0.234668
	0.181195
	0.104851
	0.053632
	0.001448
	-0.026255
	-0.068454
	-0.089070
	-0.136745
	-0.157039
	-0.212445
	-0.237249
	-0.288789
	-0.309727
	-0.343551
	-0.346772
	-0.372542
	-0.373831
	-0.380273
	-0.380273
	-0.374153
	-0.363845
	-0.344839
	-0.330021
	-0.311016
	-0.293621
	-0.277192
	-0.267207
	-0.258509
	-0.251422
	-0.240792
	-0.234994
	-0.225652
	-0.218565
	-0.209868
	-0.199238
	-0.185386
	-0.178622
	-0.166381
	-0.171535
	-0.167347
	-0.164126
	-0.158328
	-0.157039
	-0.150596
	-0.153818
	-0.152529
	-0.155751
	-0.159616
	-0.154140
	-0.157039
	-0.152851
	-0.158650
	-0.153818
	-0.153173
	-0.136423
	-0.131269
	-0.122249
	-0.121283
	-0.120639
	-0.121605
	-0.121283
	-0.119350
	-0.124504
	-0.120961
	-0.126115
	-0.124182
	-0.129980
	-0.130947
	-0.136745
	-0.134490
	-0.139644
	-0.137067
	-0.139644
	-0.134812
	-0.127081
	-0.119672
	-0.115485
	-0.110653
	-0.114518
	-0.113552
	-0.112908
	-0.112585
	-0.105821
	-0.110653
	-0.107754
	-0.111941
	-0.112908
	-0.118062
	-0.117095
	-0.123538
	-0.120639
	-0.119028
	-0.114840
	-0.110008
	-0.101633
	-0.091003
	-0.083594
	-0.078762
	-0.083594
	-0.079406
	-0.082628
	-0.073930
	-0.077151
	-0.074252
	-0.076507
	-0.076829
	-0.080695
	-0.082950
	-0.086493
	-0.088426
	-0.087460
	-0.086815
	-0.080373
	-0.080695
	-0.064911
	-0.061045
	-0.050093
	-0.049448
	-0.045905
	-0.044939
	-0.041395
	-0.042684
	-0.040107
	-0.046227
	-0.040107
	-0.040429
	-0.043006
	-0.044294
	-0.043006
	-0.043328
	-0.043650
	-0.042040
	-0.043972
	-0.038496
	-0.028510
	-0.016914
	-0.014659
	-0.007894
	-0.008538
	-0.004028
	0.001126
	0.006602
	0.006924
	0.013044
	0.014011
	0.015943
	0.012722
	0.010467
	0.012400
	0.012722
	0.017232
	0.018520
	0.025929
	0.028184
	0.046223
	0.040103
	0.035271
	0.025929
	0.017876
	0.009501
	0.002736
	-0.004995
	-0.009827
	-0.015947
	-0.024000
	-0.028832
	-0.040751
	-0.045583
	-0.054925
	-0.063300
	-0.073286
	-0.078118
	-0.083594
	-0.083594
	-0.082305
	-0.081017
	-0.077474
	-0.083272
	-0.085205
	-0.094546
	-0.094224
	-0.097768
	-0.097445
	-0.105821
	-0.107109
	-0.118706
	-0.119994
	-0.134168
	-0.135456
	-0.147053
	-0.148019
	-0.151241
	-0.149630
	-0.153496
	-0.146087
	-0.145120
	-0.141255
	-0.139322
	-0.146409
	-0.147375
	-0.152851
	-0.148986
	-0.153818
	-0.151563
	-0.151885
	-0.148664
	-0.153173
	-0.151885
	-0.158005
	-0.155751
	-0.155751
	-0.150919
	-0.145120
	-0.139644
	-0.123860
	-0.116129
	-0.095191
	-0.084882
	-0.064588
	-0.053636
	0.085201
	0.163156
	0.381881
	0.499135
	0.733645
	0.854444
	1.052553
	1.150481
	1.266448
	1.318311
	1.358899
	1.372106
	1.374683
	1.355356
	1.302848
	1.250985
	1.169486
	1.108604
	1.017119
	0.948183
	0.864752
	0.801937
	0.735256
	0.664388
	0.591586
	0.518141
	0.446629
	0.367063
	0.298450
	0.220172
	0.164122
	0.085523
	0.038170
	-0.013692
	-0.033020
	-0.066199
	-0.080051
	-0.117417
	-0.139644
	-0.190218
	-0.215022
	-0.264630
	-0.287501
	-0.323901
	-0.340007
	-0.370609
	-0.387038
	-0.394769
	-0.397990
	-0.391225
	-0.385427
	-0.365133
	-0.352892
	-0.326156
	-0.306828
	-0.273005
	-0.261086
	-0.240792
	-0.236927
	-0.224041
	-0.215344
	-0.203425
	-0.198271
	-0.193762
	-0.188930
	-0.186353
	-0.184742
	-0.185064
	-0.182165
	-0.187319
	-0.180232
	-0.182487
	-0.172179
	-0.170246
	-0.156717
	-0.151563
	-0.144154
	-0.141255
	-0.139966
	-0.138678
	-0.135779
	-0.136101
	-0.135779
	-0.136423
	-0.135134
	-0.131591
	-0.136745
	-0.135456
	-0.141899
	-0.141255
	-0.144798
	-0.142221
	-0.143832
	-0.138034
	-0.134490
	-0.122571
	-0.121927
	-0.115485
	-0.119994
	-0.119028
	-0.118062
	-0.118062
	-0.117095
	-0.121283
	-0.119350
	-0.123538
	-0.124504
	-0.131913
	-0.129658
	-0.136101
	-0.132235
	-0.132557
	-0.127403
	-0.121605
	-0.115807
	-0.106787
	-0.104532
	-0.099378
	-0.105499
	-0.102599
	-0.104532
	-0.099056
	-0.097123
	-0.094224
	-0.096157
	-0.091647
	-0.092936
	-0.097445
	-0.096479
	-0.103244
	-0.099700
	-0.099056
	-0.092291
	-0.093580
	-0.082950
	-0.078440
	-0.070065
	-0.071353
	-0.070387
	-0.073930
	-0.066521
	-0.066199
	-0.062334
	-0.063622
	-0.062334
	-0.058790
	-0.062656
	-0.064266
	-0.063944
	-0.063622
	-0.062011
	-0.062334
	-0.063300
	-0.057824
	-0.050737
	-0.038496
	-0.036885
	-0.028510
	-0.032054
	-0.024645
	-0.025611
	-0.022712
	-0.026255
	-0.024323
	-0.023678
	-0.021745
	-0.025611
	-0.024000
	-0.025611
	-0.023356
	-0.018846
	-0.017236
	-0.011437
	-0.005961
	0.008212
	0.014655
	0.021420
	0.024963
	0.028184
	0.029151
	0.038170
	0.038170
	0.046546
	0.045257
	0.050411
	0.040103
	0.023352
	0.010467
	0.001770
	-0.007894
	-0.019491
	-0.024967
	-0.031409
	-0.032698
	-0.033664
	-0.028832
	-0.032376
	-0.029154
	-0.040107
	-0.043328
	-0.053636
	-0.057180
	-0.063300
	-0.073608
	-0.073930
	-0.084238
	-0.089392
	-0.100989
	-0.104210
	-0.114840
	-0.114518
	-0.120961
	-0.116129
	-0.123538
	-0.114518
	-0.116451
	-0.113230
	-0.115162
	-0.119994
	-0.125793
	-0.128048
	-0.128692
	-0.132235
	-0.138356
	-0.140933
	-0.147053
	-0.154784
	-0.156395
	-0.164126
	-0.167347
	-0.172823
	-0.171857
	-0.172823
	-0.168958
	-0.159616
	-0.147697
	-0.142221
	-0.135456
	-0.139966
	-0.138034
	-0.134168
	-0.133846
	-0.125148
	-0.126759
	-0.119350
	-0.120639
	-0.106787
	-0.102922
	-0.083594
	-0.077796
	0.058786
	0.133520
	0.353533
	0.474332
	0.712063
	0.843813
	1.043212
	1.156601
	1.273212
	1.334417
	1.374683
	1.393367
	1.389501
	1.375328
	1.314445
	1.263871
	1.174318
	1.101839
	1.008744
	0.933043
	0.849934
	0.786474
	0.719149
	0.651180
	0.585466
	0.514598
	0.455970
	0.379948
	0.315200
	0.238212
	0.183772
	0.108072
	0.055243
	0.003380
	-0.024967
	-0.065877
	-0.088748
	-0.131913
	-0.157361
	-0.205036
	-0.239826
	-0.282669
	-0.309727
	-0.337430
	-0.348383
	-0.367066
	-0.378018
	-0.378018
	-0.385105
	-0.372864
	-0.369321
	-0.343551
	-0.334853
	-0.311016
	-0.298775
	-0.276870
	-0.269139
	-0.257543
	-0.253677
	-0.244013
	-0.235638
	-0.227907
	-0.216955
	-0.212767
	-0.198916
	-0.188607
	-0.175722
	-0.170890
	-0.169280
	-0.170568
	-0.163804
	-0.163482
	-0.154784
	-0.155428
	-0.151885
	-0.155751
	-0.156717
	-0.160260
	-0.157039
	-0.157039
	-0.154784
	-0.156395
	-0.157361
	-0.151241
	-0.142543
	-0.129336
	-0.127081
	-0.119350
	-0.123538
	-0.122571
	-0.122894
	-0.122894
	-0.123860
	-0.123860
	-0.123860
	-0.129014
	-0.128692
	-0.136101
	-0.133524
	-0.140288
	-0.137067
	-0.139966
	-0.137389
	-0.133846
	-0.126759
	-0.120961
	-0.115162
	-0.111941
	-0.117095
	-0.114196
	-0.118062
	-0.109364
	-0.112263
	-0.108398
	-0.111297
	-0.111297
	-0.116129
	-0.116129
	-0.120639
	-0.120317
	-0.123216
	-0.118062
	-0.114518
	-0.112908
	-0.102599
	-0.095191
	-0.082950
	-0.082305
	-0.081661
	-0.083272
	-0.080051
	-0.078762
	-0.074574
	-0.077796
	-0.074897
	-0.078762
	-0.082628
	-0.084560
	-0.088748
	-0.088104
	-0.090359
	-0.084560
	-0.084560
	-0.081017
	-0.071353
	-0.059112
	-0.055569
	-0.045261
	-0.049448
	-0.043006
	-0.044294
	-0.042362
	-0.042684
	-0.044294
	-0.040751
	-0.042040
	-0.040751
	-0.046549
	-0.043328
	-0.045261
	-0.040429
	-0.046871
	-0.040107
	-0.043328
	-0.028510
	-0.022068
	-0.013692
	-0.010149
	-0.008538
	-0.004673
	0.000481
	0.003380
	0.007890
	0.009823
	0.012400
	0.015621
	0.008857
	0.010789
	0.008212
	0.012400
	0.014655
	0.017876
	0.022064
	0.029795
	0.040425
	0.045579
	0.031406
	0.026896
	0.018843
	0.008857
	0.002414
	-0.006928
	-0.010471
	-0.019491
	-0.022712
	-0.031409
	-0.036241
	-0.048160
	-0.050093
	-0.064266
	-0.070387
	-0.078762
	-0.084238
	-0.084560
	-0.085849
	-0.080373
	-0.081339
	-0.081017
	-0.090037
	-0.092936
	-0.098412
	-0.095191
	-0.100989
	-0.103566
	-0.109686
	-0.114840
	-0.121283
	-0.130625
	-0.136101
	-0.144154
	-0.147697
	-0.150274
	-0.150274
	-0.154140
	-0.147053
	-0.149630
	-0.142865
	-0.142221
	-0.144798
	-0.152529
	-0.150596
	-0.153496
	-0.150596
	-0.156073
	-0.149952
	-0.149308
	-0.150919
	-0.151241
	-0.155428
	-0.157039
	-0.155751
	-0.151563
	-0.149308
	-0.140611
	-0.130625
	-0.115807
	-0.103244
	-0.084560
	-0.071675
	-0.055569
	0.071672
	0.153814
	0.366096
	0.487861
	0.716895
	0.843169
	1.039346
	1.141783
	1.260327
	1.313479
	1.358255
	1.370496
	1.372751
	1.359865
	1.306714
	1.255495
	1.176573
	1.111825
	1.025172
	0.951405
	0.872805
	0.806769
	0.741698
	0.670508
	0.599317
	0.522973
	0.453071
	0.374150
	0.302315
	0.228548
	0.165733
	0.093576
	0.037204
	-0.007250
	-0.034631
	-0.059112
	-0.084560
	-0.111619
	-0.144154
	-0.187319
	-0.218565
	-0.262052
	-0.287823
	-0.321646
	-0.338397
	-0.370287
	-0.387360
	-0.397990
	-0.396702
	-0.395091
	-0.383817
	-0.369643
	-0.353214
	-0.329377
	-0.306828
	-0.280414
	-0.258509
	-0.245624
	-0.234672
	-0.229196
	-0.215666
	-0.207613
	-0.199882
	-0.195372
	-0.191507
	-0.187963
	-0.187641
	-0.183776
	-0.184098
	-0.185708
	-0.185708
	-0.181199
	-0.178299
	-0.168313
	-0.162837
	-0.151563
	-0.148019
	-0.141255
	-0.140611
	-0.136745
	-0.137389
	-0.132879
	-0.138034
	-0.133524
	-0.132557
	-0.131269
	-0.133524
	-0.138678
	-0.137711
	-0.140933
	-0.142221
	-0.143188
	-0.141255
	-0.140933
	-0.131591
	-0.129014
	-0.119028
	-0.119672
	-0.116773
	-0.120639
	-0.117739
	-0.118384
	-0.119028
	-0.120961
	-0.119672
	-0.121927
	-0.126115
	-0.128370
	-0.133202
	-0.132879
	-0.137711
	-0.130947
	-0.130625
	-0.124182
	-0.118384
	-0.108720
	-0.104210
	-0.099700
	-0.102599
	-0.102922
	-0.101311
	-0.096479
	-0.095191
	-0.097123
	-0.095191
	-0.096479
	-0.092614
	-0.097768
	-0.097445
	-0.102277
	-0.100667
	-0.100345
	-0.093258
	-0.094224
	-0.082305
	-0.078118
	-0.071997
	-0.067488
	-0.071031
	-0.068776
	-0.070065
	-0.064266
	-0.063622
	-0.063622
	-0.065233
	-0.060079
	-0.064911
	-0.063944
	-0.065555
	-0.063300
	-0.064911
	-0.064266
	-0.064911
	-0.059434
	-0.051059
	-0.041073
	-0.032376
	-0.029477
	-0.025933
	-0.027544
	-0.024000
	-0.024967
	-0.022390
	-0.026255
	-0.020457
	-0.024323
	-0.020135
	-0.028832
	-0.023356
	-0.025933
	-0.019813
	-0.019813
	-0.011760
	-0.007572
	0.005635
	0.012722
	0.020131
	0.026896
	0.027540
	0.031406
	0.035593
	0.040103
	0.043002
	0.046223
	0.049123
	0.047512
	0.022386
	0.013689
	-0.000807
	-0.006606
	-0.021101
	-0.025289
	-0.033020
	-0.032054
	-0.034953
	-0.027866
	-0.033342
	-0.028832
	-0.039140
	-0.044294
	-0.052025
	-0.056857
	-0.063622
	-0.067810
	-0.077151
	-0.080373
	-0.091325
	-0.096801
	-0.104532
	-0.111619
	-0.118062
	-0.117417
	-0.120961
	-0.118384
	-0.118384
	-0.113874
	-0.112263
	-0.114840
	-0.118062
	-0.126759
	-0.126115
	-0.130947
	-0.129980
	-0.137389
	-0.140611
	-0.150596
	-0.151885
	-0.161549
	-0.160260
	-0.170568
	-0.168313
	-0.173790
	-0.170890
	-0.170568
	-0.158005
	-0.149952
	-0.141255
	-0.137389
	-0.138356
	-0.139644
	-0.136101
	-0.130302
	-0.128370
	-0.122249
	-0.123860
	-0.116773
	-0.111297
	-0.101311
	-0.086171
	-0.072964
	0.046868
	0.132232
	0.337105
	0.465634
	0.696600
	0.828673
	1.031615
	1.144038
	1.268380
	1.328941
	1.375006
	1.391756
	1.393367
	1.377905
	1.321854
	1.269669
	1.182372
	1.109570
	1.014542
	0.941419
	0.856054
	0.790662
	0.723981
	0.659556
	0.589976
	0.522329
	0.456937
	0.390900
	0.317133
	0.250452
	0.185383
	0.119346
	0.057498
	0.010145
	-0.024323
	-0.059112
	-0.091325
	-0.126115
	-0.158328
	-0.201493
	-0.237249
	-0.278803
	-0.307472
	-0.334853
	-0.349349
	-0.366422
	-0.378018
	-0.375763
	-0.382850
	-0.373831
	-0.367066
	-0.348705
	-0.332598
	-0.316814
	-0.299419
	-0.281058
	-0.268173
	-0.262052
	-0.251744
	-0.247235
	-0.234994
	-0.228873
	-0.218243
	-0.213411
	-0.198271
	-0.187963
	-0.177011
	-0.167669
	-0.167669
	-0.166381
	-0.165736
	-0.159616
	-0.158005
	-0.153818
	-0.154140
	-0.152851
	-0.158328
	-0.157039
	-0.160260
	-0.155428
	-0.158005
	-0.155428
	-0.157039
	-0.152851
	-0.141255
	-0.131591
	-0.125793
	-0.120317
	-0.122571
	-0.123216
	-0.122894
	-0.124504
	-0.122249
	-0.127403
	-0.123216
	-0.129014
	-0.127725
	-0.133846
	-0.133524
	-0.138034
	-0.138034
	-0.141255
	-0.136101
	-0.137067
	-0.127403
	-0.122249
	-0.116451
	-0.111297
	-0.114518
	-0.115162
	-0.115807
	-0.111619
	-0.108720
	-0.108076
	-0.109686
	-0.108398
	-0.115162
	-0.115162
	-0.120639
	-0.120639
	-0.123860
	-0.119028
	-0.119672
	-0.112908
	-0.108720
	-0.092614
	-0.088748
	-0.079406
	-0.083594
	-0.081339
	-0.082950
	-0.077796
	-0.075541
	-0.075219
	-0.076507
	-0.076507
	-0.080695
	-0.084560
	-0.085205
	-0.089714
	-0.087460
	-0.086493
	-0.082305
	-0.081661
	-0.071675
	-0.061689
	-0.052025
	-0.052670
	-0.046871
	-0.046871
	-0.042040
	-0.042362
	-0.043650
	-0.043006
	-0.042040
	-0.040429
	-0.043328
	-0.043650
	-0.045905
	-0.042684
	-0.046549
	-0.041717
	-0.046227
	-0.040107
	-0.033342
	-0.021101
	-0.017236
	-0.009183
	-0.009827
	-0.005317
	-0.000163
	0.004347
	0.008857
	0.007568
	0.015621
	0.012722
	0.013366
	0.008857
	0.012078
	0.011112
