LabVIEW Measurement	
Writer_Version	2
Reader_Version	2
Separator	Tab
Decimal_Separator	.
Multi_Headings	No
X_Columns	No
Time_Pref	Absolute
Operator	orzr
Date	2022/04/28
Time	13:00:49.3801231499427379973
***End_of_Header***	
	
Channels	1	
Samples	10000	
Date	2022/04/28	
Time	13:00:49.3801231499427379973	
Y_Unit_Label	Volts	
X_Dimension	Time	
X0	0.0000000000000000E+0	
Delta_X	0.001000	
***End_of_Header***		
X_Value	Voltage	Comment
	4.475883
	4.089314
	3.601274
	3.024326
	2.370715
	1.661380
	0.917259
	0.151237
	-0.622835
	-1.382730
	-2.106547
	-2.777212
	-3.382163
	-3.905618
	-4.336300
	-4.658105
	-4.865232
	-4.952851
	-4.917739
	-4.757964
	-4.475781
	-4.085364
	-3.595733
	-3.019128
	-2.371978
	-1.661369
	-0.909849
	-0.141899
	0.629598
	1.386280
	2.112687
	2.787557
	3.389629
	3.909882
	4.342194
	4.665947
	4.875018
	4.958775
	4.917541
	4.760657
	4.480715
	4.089636
	3.597730
	3.020139
	2.373292
	1.666856
	0.917581
	0.146405
	-0.624767
	-1.379831
	-2.102359
	-2.778178
	-3.386029
	-3.905940
	-4.335012
	-4.655850
	-4.864910
	-4.956072
	-4.916451
	-4.755387
	-4.475459
	-4.086008
	-3.599598
	-3.018484
	-2.367790
	-1.662013
	-0.914037
	-0.144798
	0.631208
	1.390468
	2.111398
	2.783369
	3.390596
	3.915681
	4.344772
	4.665947
	4.869864
	4.958775
	4.922373
	4.760657
	4.478782
	4.085448
	3.601274
	3.025293
	2.371038
	1.662346
	0.916292
	0.148338
	-0.623479
	-1.382086
	-2.108479
	-2.777212
	-3.381519
	-3.904973
	-4.333401
	-4.659715
	-4.863622
	-4.951562
	-4.916451
	-4.756998
	-4.478680
	-4.085686
	-3.595411
	-3.018484
	-2.371334
	-1.662013
	-0.912104
	-0.142543
	0.627021
	1.385958
	2.113009
	2.785946
	3.388985
	3.910849
	4.343805
	4.668524
	4.874696
	4.958131
	4.919796
	4.761301
	4.482004
	4.090280
	3.596764
	3.020783
	2.373292
	1.667178
	0.919192
	0.145439
	-0.626378
	-1.380475
	-2.103003
	-2.776245
	-3.384418
	-3.906262
	-4.330502
	-4.654561
	-4.864910
	-4.954784
	-4.917095
	-4.754421
	-4.476103
	-4.086975
	-3.598954
	-3.018806
	-2.366502
	-1.661691
	-0.915003
	-0.143832
	0.630242
	1.389501
	2.113009
	2.782725
	3.388018
	3.915359
	4.343805
	4.667880
	4.870830
	4.957165
	4.924628
	4.761301
	4.480393
	4.086415
	3.600951
	3.025293
	2.371682
	1.662346
	0.916937
	0.148982
	-0.622835
	-1.381764
	-2.108479
	-2.777856
	-3.381841
	-3.905618
	-4.332435
	-4.660038
	-4.867165
	-4.952851
	-4.917739
	-4.754743
	-4.478358
	-4.087941
	-3.595733
	-3.018484
	-2.367790
	-1.663624
	-0.915648
	-0.140611
	0.631852
	1.387247
	2.109466
	2.783047
	3.391240
	3.915359
	4.340906
	4.664014
	4.872441
	4.961030
	4.925272
	4.760335
	4.476205
	4.089636
	3.600951
	3.022716
	2.371038
	1.661380
	0.916615
	0.149949
	-0.623479
	-1.380798
	-2.106869
	-2.777212
	-3.380553
	-3.906262
	-4.336622
	-4.658427
	-4.864910
	-4.952529
	-4.917095
	-4.759253
	-4.476425
	-4.085042
	-3.594766
	-3.021061
	-2.371334
	-1.661369
	-0.912748
	-0.141899
	0.629275
	1.385314
	2.113975
	2.787557
	3.391884
	3.912782
	4.340906
	4.666913
	4.874374
	4.958453
	4.918507
	4.760657
	4.482004
	4.091247
	3.599985
	3.020461
	2.372648
	1.666212
	0.917581
	0.146727
	-0.624767
	-1.379187
	-2.102681
	-2.776890
	-3.386029
	-3.904329
	-4.332435
	-4.655528
	-4.867165
	-4.956072
	-4.915806
	-4.753776
	-4.475137
	-4.086653
	-3.598310
	-3.017839
	-2.367146
	-1.662013
	-0.916292
	-0.144476
	0.630886
	1.388535
	2.113653
	2.782081
	3.389629
	3.916003
	4.344127
	4.667236
	4.869542
	4.955876
	4.924306
	4.762268
	4.480715
	4.087703
	3.597408
	3.024326
	2.373615
	1.662991
	0.915004
	0.149626
	-0.623157
	-1.379187
	-2.106869
	-2.779144
	-3.378942
	-3.904007
	-4.334045
	-4.658749
	-4.866199
	-4.951562
	-4.916128
	-4.758286
	-4.475459
	-4.083753
	-3.594122
	-3.018806
	-2.370689
	-1.659759
	-0.910494
	-0.144476
	0.627343
	1.386924
	2.112687
	2.785946
	3.388985
	3.910527
	4.344127
	4.667880
	4.874374
	4.959420
	4.918830
	4.762590
	4.484259
	4.087381
	3.596119
	3.021427
	2.373292
	1.667823
	0.916615
	0.146727
	-0.621868
	-1.379509
	-2.104614
	-2.777856
	-3.384096
	-3.904651
	-4.332113
	-4.657461
	-4.866521
	-4.954140
	-4.916451
	-4.754743
	-4.478680
	-4.089230
	-3.597665
	-3.018806
	-2.367468
	-1.662658
	-0.916936
	-0.142543
	0.630564
	1.387247
	2.109143
	2.781436
	3.391240
	3.914392
	4.340584
	4.663370
	4.873085
	4.961030
	4.923984
	4.759046
	4.477172
	4.092213
	3.600307
	3.024004
	2.370393
	1.663635
	0.920802
	0.151237
	-0.624123
	-1.382408
	-2.105258
	-2.775923
	-3.381197
	-3.909161
	-4.334045
	-4.656494
	-4.864910
	-4.952851
	-4.919994
	-4.755387
	-4.474493
	-4.085686
	-3.597021
	-3.021061
	-2.369401
	-1.659114
	-0.914037
	-0.146731
	0.630242
	1.389179
	2.112687
	2.784014
	3.386730
	3.913104
	4.344127
	4.664014
	4.870508
	4.956520
	4.922695
	4.763878
	4.480715
	4.088026
	3.598374
	3.022394
	2.373292
	1.664601
	0.914360
	0.148338
	-0.622190
	-1.379187
	-2.104936
	-2.780433
	-3.381841
	-3.904973
	-4.334368
	-4.657461
	-4.868132
	-4.953495
	-4.916128
	-4.754421
	-4.478680
	-4.087297
	-3.595088
	-3.017839
	-2.370045
	-1.664913
	-0.914359
	-0.142865
	0.630886
	1.386602
	2.109143
	2.786268
	3.391562
	3.915359
	4.340262
	4.661759
	4.874052
	4.960386
	4.921085
	4.757758
	4.477816
	4.092535
	3.601596
	3.021427
	2.369427
	1.664279
	0.918547
	0.149304
	-0.626700
	-1.382408
	-2.102359
	-2.776567
	-3.381519
	-3.907550
	-4.335656
	-4.654561
	-4.864910
	-4.954140
	-4.918706
	-4.756031
	-4.474815
	-4.084398
	-3.596377
	-3.019128
	-2.367790
	-1.661047
	-0.912426
	-0.147053
	0.629920
	1.390468
	2.111720
	2.784336
	3.387696
	3.914070
	4.345738
	4.665625
	4.869864
	4.956843
	4.921085
	4.762268
	4.481360
	4.086737
	3.599341
	3.023682
	2.373937
	1.665568
	0.915648
	0.148338
	-0.621224
	-1.380798
	-2.105902
	-2.778822
	-3.382808
	-3.903685
	-4.332757
	-4.659393
	-4.866199
	-4.952851
	-4.917417
	-4.756998
	-4.479325
	-4.086975
	-3.594122
	-3.018806
	-2.368435
	-1.663946
	-0.914037
	-0.140288
	0.630564
	1.384669
	2.109143
	2.784658
	3.391884
	3.914392
	4.338651
	4.663692
	4.875018
	4.961030
	4.922695
	4.757436
	4.479105
	4.093180
	3.600951
	3.023038
	2.370715
	1.663957
	0.921447
	0.150593
	-0.625412
	-1.382730
	-2.105258
	-2.775279
	-3.380875
	-3.907228
	-4.335978
	-4.655850
	-4.864266
	-4.951562
	-4.918706
	-4.758608
	-4.474170
	-4.085042
	-3.595088
	-3.021383
	-2.371978
	-1.659436
	-0.911782
	-0.142865
	0.629275
	1.384669
	2.111720
	2.786591
	3.391884
	3.912782
	4.341228
	4.664658
	4.875018
	4.961353
	4.919474
	4.758402
	4.480071
	4.090603
	3.601596
	3.021427
	2.370393
	1.667178
	0.920480
	0.150915
	-0.624123
	-1.381120
	-2.102359
	-2.774313
	-3.380553
	-3.906262
	-4.334690
	-4.656172
	-4.863622
	-4.953173
	-4.919028
	-4.756353
	-4.475137
	-4.084076
	-3.596055
	-3.021705
	-2.370689
	-1.661369
	-0.911782
	-0.141899
	0.627343
	1.386602
	2.114297
	2.784980
	3.391240
	3.911815
	4.341550
	4.666591
	4.875662
	4.960386
	4.920762
	4.760657
	4.483292
	4.093824
	3.600307
	3.020461
	2.371038
	1.665568
	0.920158
	0.150915
	-0.625090
	-1.380798
	-2.101071
	-2.774957
	-3.381519
	-3.907228
	-4.336622
	-4.655528
	-4.863944
	-4.952851
	-4.918383
	-4.757642
	-4.474170
	-4.084398
	-3.595088
	-3.019450
	-2.371978
	-1.661047
	-0.910171
	-0.142221
	0.627665
	1.386280
	2.112043
	2.785624
	3.392851
	3.911815
	4.339295
	4.666913
	4.873085
	4.959420
	4.920440
	4.759046
	4.482326
	4.091569
	3.599019
	3.020461
	2.369749
	1.666212
	0.920480
	0.150593
	-0.625734
	-1.381120
	-2.102681
	-2.775601
	-3.380231
	-3.908195
	-4.335012
	-4.656172
	-4.865877
	-4.952207
	-4.919350
	-4.758286
	-4.475459
	-4.085686
	-3.595411
	-3.021383
	-2.372300
	-1.661047
	-0.911782
	-0.143188
	0.627987
	1.384025
	2.111720
	2.785624
	3.390596
	3.913426
	4.339295
	4.663692
	4.875018
	4.959098
	4.919796
	4.758080
	4.480715
	4.091569
	3.602240
	3.020461
	2.370393
	1.666534
	0.918225
	0.149304
	-0.627989
	-1.384019
	-2.102681
	-2.776245
	-3.382485
	-3.906262
	-4.336945
	-4.656816
	-4.864266
	-4.954140
	-4.917739
	-4.758286
	-4.477070
	-4.084398
	-3.596699
	-3.021061
	-2.372622
	-1.661691
	-0.911460
	-0.142543
	0.627343
	1.384669
	2.111076
	2.785624
	3.392206
	3.911815
	4.338973
	4.665625
	4.872763
	4.961030
	4.919796
	4.756791
	4.481037
	4.092213
	3.600629
	3.023038
	2.369105
	1.663957
	0.920802
	0.149949
	-0.622835
	-1.383697
	-2.106869
	-2.775279
	-3.379908
	-3.906262
	-4.335334
	-4.657138
	-4.864266
	-4.951562
	-4.917417
	-4.758286
	-4.478036
	-4.086008
	-3.594122
	-3.019772
	-2.371978
	-1.663624
	-0.912748
	-0.141255
	0.630242
	1.384025
	2.111398
	2.785624
	3.390273
	3.914070
	4.339295
	4.663692
	4.874696
	4.959742
	4.921729
	4.758080
	4.477816
	4.091569
	3.602240
	3.023360
	2.370715
	1.662346
	0.919514
	0.150915
	-0.622835
	-1.381120
	-2.104936
	-2.775601
	-3.379908
	-3.905296
	-4.336945
	-4.657138
	-4.864910
	-4.952529
	-4.916451
	-4.757642
	-4.474493
	-4.084398
	-3.595088
	-3.020094
	-2.373267
	-1.662980
	-0.912426
	-0.143510
	0.628309
	1.384347
	2.109466
	2.785946
	3.391884
	3.912459
	4.338973
	4.662403
	4.873407
	4.961997
	4.921729
	4.757758
	4.479427
	4.091891
	3.602240
	3.024326
	2.369427
	1.663957
	0.919192
	0.149304
	-0.621546
	-1.383053
	-2.104936
	-2.773990
	-3.379908
	-3.904973
	-4.335656
	-4.659071
	-4.863300
	-4.953173
	-4.917417
	-4.758286
	-4.478358
	-4.086330
	-3.594122
	-3.018806
	-2.371978
	-1.663946
	-0.913715
	-0.143188
	0.629598
	1.384669
	2.109788
	2.784658
	3.391562
	3.916003
	4.340906
	4.661759
	4.873085
	4.959742
	4.924306
	4.761623
	4.476205
	4.089636
	3.600629
	3.024004
	2.373615
	1.662024
	0.918870
	0.151237
	-0.621546
	-1.380798
	-2.105902
	-2.777856
	-3.378942
	-3.902074
	-4.333723
	-4.658427
	-4.866843
	-4.952207
	-4.917095
	-4.755709
	-4.479002
	-4.087941
	-3.594444
	-3.019128
	-2.369079
	-1.663946
	-0.916614
	-0.143832
	0.630564
	1.387247
	2.111076
	2.781436
	3.391240
	3.917291
	4.342839
	4.664014
	4.869542
	4.959420
	4.924950
	4.760979
	4.480071
	4.089314
	3.599663
	3.027226
	2.374903
	1.666534
	0.917581
	0.149304
	-0.620580
	-1.378865
	-2.104936
	-2.776567
	-3.382163
	-3.902719
	-4.331468
	-4.655850
	-4.866843
	-4.955428
	-4.914840
	-4.755065
	-4.475781
	-4.087297
	-3.600242
	-3.019772
	-2.369079
	-1.662013
	-0.915325
	-0.147697
	0.627343
	1.388857
	2.111720
	2.784658
	3.387696
	3.912137
	4.344127
	4.665625
	4.872441
	4.956520
	4.918185
	4.762268
	4.481682
	4.089958
	3.599341
	3.019494
	2.372970
	1.668467
	0.919836
	0.148660
	-0.623479
	-1.378865
	-2.101393
	-2.774957
	-3.384418
	-3.905940
	-4.332757
	-4.655206
	-4.862655
	-4.956394
	-4.918383
	-4.755709
	-4.477392
	-4.085686
	-3.599920
	-3.023960
	-2.370367
	-1.661691
	-0.912748
	-0.144476
	0.625732
	1.386602
	2.111398
	2.784336
	3.388985
	3.910204
	4.342194
	4.667236
	4.873085
	4.959098
	4.920440
	4.760013
	4.483292
	4.091891
	3.599985
	3.020461
	2.372004
	1.668145
	0.920158
	0.148982
	-0.624445
	-1.381120
	-2.100748
	-2.774635
	-3.382808
	-3.905618
	-4.333079
	-4.654884
	-4.863622
	-4.956394
	-4.919994
	-4.756676
	-4.475137
	-4.085042
	-3.598954
	-3.022027
	-2.371334
	-1.661047
	-0.912104
	-0.143832
	0.627021
	1.386280
	2.111720
	2.785624
	3.391240
	3.910527
	4.341550
	4.667558
	4.874052
	4.960708
	4.919474
	4.760335
	4.483615
	4.091891
	3.599985
	3.022394
	2.373615
	1.668145
	0.920802
	0.148338
	-0.623801
	-1.378543
	-2.102037
	-2.773346
	-3.382485
	-3.906584
	-4.330502
	-4.655850
	-4.862978
	-4.955428
	-4.918383
	-4.754421
	-4.475781
	-4.085364
	-3.598632
	-3.022993
	-2.368112
	-1.659759
	-0.914037
	-0.144476
	0.626376
	1.388535
	2.113653
	2.783691
	3.387696
	3.912459
	4.342517
	4.666913
	4.871474
	4.956198
	4.924306
	4.761946
	4.481682
	4.090603
	3.597086
	3.026259
	2.375225
	1.666212
	0.917259
	0.148016
	-0.620902
	-1.377254
	-2.103970
	-2.778500
	-3.380875
	-3.903363
	-4.330502
	-4.658105
	-4.868454
	-4.952529
	-4.916451
	-4.755065
	-4.478036
	-4.089552
	-3.597665
	-3.020416
	-2.371012
	-1.664268
	-0.916614
	-0.144798
	0.630242
	1.386924
	2.109466
	2.782081
	3.389629
	3.916325
	4.343161
	4.663692
	4.870186
	4.959098
	4.924950
	4.762590
	4.479749
	4.087703
	3.600307
	3.024649
	2.374581
	1.663635
	0.916937
	0.150271
	-0.621224
	-1.377898
	-2.104614
	-2.777856
	-3.380875
	-3.904007
	-4.331468
	-4.659071
	-4.867487
	-4.952529
	-4.917095
	-4.754743
	-4.479969
	-4.088585
	-3.597343
	-3.021061
	-2.369401
	-1.665235
	-0.917580
	-0.142865
	0.628953
	1.385958
	2.109143
	2.781759
	3.391884
	3.914714
	4.340906
	4.664014
	4.870830
	4.961675
	4.924950
	4.761301
	4.478782
	4.089958
	3.602884
	3.027226
	2.373937
	1.664601
	0.918547
	0.151559
	-0.619613
	-1.380475
	-2.105902
	-2.777212
	-3.380875
	-3.903041
	-4.334368
	-4.659071
	-4.865877
	-4.952851
	-4.915806
	-4.757642
	-4.478680
	-4.086330
	-3.596377
	-3.020094
	-2.372622
	-1.665235
	-0.913393
	-0.142865
	0.627665
	1.384347
	2.108821
	2.784336
	3.390596
	3.912782
	4.338973
	4.663370
	4.873729
	4.961030
	4.922373
	4.758080
	4.481037
	4.093180
	3.601596
	3.023038
	2.369749
	1.667178
	0.922413
	0.150593
	-0.622512
	-1.382408
	-2.104614
	-2.774313
	-3.380231
	-3.904007
	-4.334690
	-4.658749
	-4.863622
	-4.952851
	-4.916128
	-4.757642
	-4.480935
	-4.085364
	-3.597343
	-3.019772
	-2.372622
	-1.666523
	-0.914681
	-0.144476
	0.627021
	1.384669
	2.108821
	2.785946
	3.392206
	3.912459
	4.339295
	4.664658
	4.872763
	4.961675
	4.922695
	4.757758
	4.483292
	4.092535
	3.603528
	3.023360
	2.370715
	1.668467
	0.921124
	0.151559
	-0.623157
	-1.381764
	-2.102037
	-2.773346
	-3.381197
	-3.906584
	-4.334690
	-4.657138
	-4.865232
	-4.954784
	-4.920638
	-4.756031
	-4.475781
	-4.086008
	-3.598310
	-3.023316
	-2.368112
	-1.662658
	-0.915325
	-0.146731
	0.627665
	1.388213
	2.111398
	2.780792
	3.387696
	3.914714
	4.344127
	4.665947
	4.868575
	4.957165
	4.923984
	4.762268
	4.481360
	4.086737
	3.599341
	3.025615
	2.374581
	1.667500
	0.917581
	0.148338
	-0.619935
	-1.378221
	-2.103970
	-2.777534
	-3.381519
	-3.902719
	-4.330824
	-4.655850
	-4.867487
	-4.955106
	-4.916773
	-4.756031
	-4.477714
	-4.089552
	-3.598632
	-3.019772
	-2.367790
	-1.661691
	-0.916936
	-0.146087
	0.628309
	1.387569
	2.110110
	2.779826
	3.386408
	3.914714
	4.343483
	4.665303
	4.869542
	4.959420
	4.924628
	4.761301
	4.480071
	4.088992
	3.600951
	3.025615
	2.374581
	1.664601
	0.917581
	0.150915
	-0.620902
	-1.378221
	-2.104614
	-2.778822
	-3.380231
	-3.904007
	-4.331791
	-4.655850
	-4.868454
	-4.954140
	-4.916128
	-4.756998
	-4.476103
	-4.089874
	-3.600565
	-3.020094
	-2.370689
	-1.661047
	-0.916292
	-0.147053
	0.628953
	1.387247
	2.111720
	2.782403
	3.386408
	3.913426
	4.344449
	4.666269
	4.870830
	4.958775
	4.924950
	4.763234
	4.482326
	4.088992
	3.598696
	3.024004
	2.375225
	1.668789
	0.919514
	0.150271
	-0.621868
	-1.377576
	-2.100748
	-2.776245
	-3.383130
	-3.906262
	-4.333079
	-4.655206
	-4.865232
	-4.955106
	-4.918061
	-4.756353
	-4.475781
	-4.084720
	-3.599920
	-3.021705
	-2.370367
	-1.661047
	-0.913071
	-0.147375
	0.628309
	1.389824
	2.110754
	2.782403
	3.384797
	3.911493
	4.344449
	4.665303
	4.871152
	4.957809
	4.919796
	4.763556
	4.483937
	4.090925
	3.599663
	3.021427
	2.373937
	1.668789
	0.920802
	0.148982
	-0.624445
	-1.378543
	-2.100104
	-2.773346
	-3.382163
	-3.906584
	-4.334368
	-4.656494
	-4.863300
	-4.955106
	-4.919350
	-4.756031
	-4.476103
	-4.085364
	-3.596377
	-3.022993
	-2.372622
	-1.665235
	-0.914359
	-0.143188
	0.627021
	1.384669
	2.110432
	2.784336
	3.391884
	3.913426
	4.337684
	4.662726
	4.871797
	4.961997
	4.924628
	4.758402
	4.479427
	4.093502
	3.602240
	3.024971
	2.370393
	1.662346
	0.921124
	0.152526
	-0.621546
	-1.379509
	-2.105580
	-2.774313
	-3.378942
	-3.904007
	-4.334368
	-4.657783
	-4.865555
	-4.951562
	-4.917095
	-4.759575
	-4.476425
	-4.085686
	-3.595411
	-3.020739
	-2.373589
	-1.663946
	-0.914037
	-0.144798
	0.628309
	1.382737
	2.108821
	2.786268
	3.390596
	3.913104
	4.339617
	4.661437
	4.874052
	4.960386
	4.921729
	4.759368
	4.478782
	4.094146
	3.604495
	3.024326
	2.372648
	1.666212
	0.920802
	0.151881
	-0.620902
	-1.382408
	-2.102359
	-2.772058
	-3.379264
	-3.904651
	-4.334690
	-4.656172
	-4.863300
	-4.952851
	-4.919028
	-4.759253
	-4.476747
	-4.085042
	-3.598954
	-3.023960
	-2.371334
	-1.662658
	-0.914037
	-0.145120
	0.625088
	1.383381
	2.111398
	2.784014
	3.389629
	3.911171
	4.339617
	4.666269
	4.873085
	4.957809
	4.920762
	4.759368
	4.482326
	4.092858
	3.599663
	3.020461
	2.373292
	1.668467
	0.921447
	0.150271
	-0.624767
	-1.380475
	-2.102359
	-2.773346
	-3.380553
	-3.906906
	-4.333079
	-4.655850
	-4.864588
	-4.953173
	-4.920316
	-4.756998
	-4.474170
	-4.085686
	-3.597021
	-3.024282
	-2.372300
	-1.661047
	-0.914681
	-0.145442
	0.626054
	1.384025
	2.110754
	2.784658
	3.388663
	3.910849
	4.341872
	4.664014
	4.874696
	4.960386
	4.919152
	4.760979
	4.482326
	4.092535
	3.601918
	3.021427
	2.371682
	1.668145
	0.920480
	0.153492
	-0.624123
	-1.382086
	-2.102681
	-2.774313
	-3.380553
	-3.904329
	-4.336300
	-4.656494
	-4.864910
	-4.953173
	-4.917739
	-4.759575
	-4.476747
	-4.086008
	-3.597988
	-3.021705
	-2.373589
	-1.665235
	-0.913071
	-0.145120
	0.627021
	1.384347
	2.106888
	2.783691
	3.390273
	3.911815
	4.339939
	4.662726
	4.873407
	4.961997
	4.921729
	4.758080
	4.480393
	4.090280
	3.602240
	3.024971
	2.371038
	1.664601
	0.920480
	0.151559
	-0.620902
	-1.379509
	-2.105580
	-2.774635
	-3.379908
	-3.903363
	-4.331791
	-4.660360
	-4.867165
	-4.954140
	-4.918061
	-4.756998
	-4.480935
	-4.089230
	-3.596699
	-3.021705
	-2.370045
	-1.665235
	-0.918869
	-0.143832
	0.628309
	1.384669
	2.107533
	2.780470
	3.389951
	3.916325
	4.341228
	4.661437
	4.868897
	4.958453
	4.923340
	4.760013
	4.477172
	4.088992
	3.601274
	3.025937
	2.376836
	1.663635
	0.918225
	0.151881
	-0.621546
	-1.377254
	-2.103648
	-2.778822
	-3.380553
	-3.903685
	-4.331791
	-4.655528
	-4.869098
	-4.955428
	-4.916773
	-4.756353
	-4.475137
	-4.090196
	-3.601209
	-3.022671
	-2.371978
	-1.662013
	-0.915325
	-0.149630
	0.624444
	1.385314
	2.110754
	2.784980
	3.387052
	3.909238
	4.342194
	4.664981
	4.873085
	4.958775
	4.919152
	4.761301
	4.482648
	4.089958
	3.599341
	3.021105
	2.374903
	1.669111
	0.918870
	0.147694
	-0.622190
	-1.378221
	-2.101715
	-2.776245
	-3.384418
	-3.904329
	-4.331791
	-4.655206
	-4.864588
	-4.956717
	-4.917417
	-4.755709
	-4.477392
	-4.088263
	-3.602175
	-3.022027
	-2.370045
	-1.663302
	-0.917580
	-0.147697
	0.625410
	1.386280
	2.111398
	2.780792
	3.385763
	3.913104
	4.342194
	4.664981
	4.872119
	4.956198
	4.921407
	4.761946
	4.482648
	4.091569
	3.597086
	3.022394
	2.376836
	1.668467
	0.921447
	0.149304
	-0.624123
	-1.377254
	-2.101393
	-2.775601
	-3.383130
	-3.906262
	-4.332757
	-4.653595
	-4.864910
	-4.955106
	-4.919028
	-4.756998
	-4.476747
	-4.086653
	-3.599920
	-3.024282
	-2.372300
	-1.662013
	-0.915970
	-0.145765
	0.622511
	1.382092
	2.110432
	2.782081
	3.388663
	3.910204
	4.336718
	4.664981
	4.873407
	4.959098
	4.921729
	4.758080
	4.481682
	4.093824
	3.601918
	3.023360
	2.372648
	1.664923
	0.921447
	0.152526
	-0.622512
	-1.379831
	-2.103325
	-2.774635
	-3.378942
	-3.902396
	-4.335012
	-4.658427
	-4.866843
	-4.951240
	-4.915162
	-4.757964
	-4.479647
	-4.088263
	-3.598310
	-3.020416
	-2.370689
	-1.666845
	-0.919513
	-0.146087
	0.628309
	1.385958
	2.108499
	2.778859
	3.388985
	3.914392
	4.341872
	4.662403
	4.866964
	4.958131
	4.923984
	4.761623
	4.479749
	4.089314
	3.600951
	3.025615
	2.375547
	1.665568
	0.915970
	0.150915
	-0.622190
	-1.378543
	-2.103325
	-2.778178
	-3.380231
	-3.902074
	-4.333723
	-4.657783
	-4.867809
	-4.954140
	-4.916128
	-4.757320
	-4.480291
	-4.088907
	-3.599598
	-3.021061
	-2.371656
	-1.667812
	-0.917258
	-0.144798
	0.626376
	1.383381
	2.106566
	2.780792
	3.390596
	3.912137
	4.337684
	4.660793
	4.870508
	4.959742
	4.922695
	4.757113
	4.479749
	4.092858
	3.601596
	3.024971
	2.370393
	1.665246
	0.923057
	0.152203
	-0.622835
	-1.381120
	-2.105258
	-2.774635
	-3.379264
	-3.905296
	-4.336945
	-4.657783
	-4.867165
	-4.953817
	-4.919672
	-4.761508
	-4.477714
	-4.087941
	-3.598954
	-3.022349
	-2.375199
	-1.663624
	-0.914037
	-0.147053
	0.624766
	1.382092
	2.108821
	2.784658
	3.388341
	3.910204
	4.340906
	4.664981
	4.872441
	4.960386
	4.920118
	4.760335
	4.483615
	4.093502
	3.602240
	3.023038
	2.372004
	1.669433
	0.922735
	0.151559
	-0.623479
	-1.378865
	-2.101393
	-2.773346
	-3.380231
	-3.904973
	-4.335012
	-4.655206
	-4.863944
	-4.953173
	-4.919028
	-4.758931
	-4.476747
	-4.085686
	-3.597988
	-3.023960
	-2.372944
	-1.662658
	-0.913071
	-0.144154
	0.623477
	1.382415
	2.109788
	2.782403
	3.388985
	3.910849
	4.338973
	4.665625
	4.875340
	4.958453
	4.920440
	4.762268
	4.483615
	4.092213
	3.599019
	3.023682
	2.376836
	1.668789
	0.920480
	0.149304
	-0.623157
	-1.377254
	-2.101393
	-2.775601
	-3.382808
	-3.902719
	-4.331791
	-4.654561
	-4.867809
	-4.954462
	-4.915162
	-4.756676
	-4.477070
	-4.091162
	-3.599920
	-3.020739
	-2.371012
	-1.664913
	-0.918869
	-0.146087
	0.628631
	1.386924
	2.107533
	2.778859
	3.388985
	3.912782
	4.341228
	4.662726
	4.868253
	4.961030
	4.924950
	4.762912
	4.480071
	4.088992
	3.602884
	3.027226
	2.376514
	1.664601
	0.921769
	0.153170
	-0.620902
	-1.379187
	-2.104292
	-2.775601
	-3.378298
	-3.903685
	-4.333723
	-4.658105
	-4.865555
	-4.951562
	-4.917739
	-4.759253
	-4.477070
	-4.087619
	-3.598632
	-3.022993
	-2.376488
	-1.664590
	-0.914681
	-0.146087
	0.626698
	1.381770
	2.107855
	2.784980
	3.388663
	3.909560
	4.339295
	4.662726
	4.872763
	4.961030
	4.918507
	4.759691
	4.483615
	4.092535
	3.603206
	3.022716
	2.371038
	1.670400
	0.921769
	0.151881
	-0.622190
	-1.381442
	-2.100748
	-2.772380
	-3.380553
	-3.906584
	-4.334045
	-4.655850
	-4.863944
	-4.955106
	-4.920316
	-4.754743
	-4.477714
	-4.085686
	-3.597988
	-3.025893
	-2.370689
	-1.662013
	-0.915648
	-0.146731
	0.622511
	1.384669
	2.111720
	2.783369
	3.387696
	3.910849
	4.341228
	4.667558
	4.873729
	4.956843
	4.921729
	4.762268
	4.483615
	4.093824
	3.598696
	3.025937
	2.377158
	1.668789
	0.920802
	0.149949
	-0.620902
	-1.376288
	-2.101393
	-2.777856
	-3.380231
	-3.903041
	-4.332113
	-4.655206
	-4.869742
	-4.953495
	-4.916773
	-4.757642
	-4.477070
	-4.091807
	-3.598310
	-3.019772
	-2.370689
	-1.663302
	-0.918869
	-0.147375
	0.629275
	1.384669
	2.107533
	2.780470
	3.385763
	3.915359
	4.343483
	4.663370
	4.868253
	4.958453
	4.923340
	4.763878
	4.481037
	4.087059
	3.602884
	3.025615
	2.376192
	1.668145
	0.917259
	0.152203
	-0.618325
	-1.377898
	-2.102681
	-2.776890
	-3.380231
	-3.901752
	-4.331468
	-4.656816
	-4.866199
	-4.954140
	-4.916451
	-4.757642
	-4.479969
	-4.087619
	-3.598310
	-3.021061
	-2.371012
	-1.666845
	-0.915970
	-0.143832
	0.627021
	1.385314
	2.107211
	2.779826
	3.390273
	3.913748
	4.340906
	4.663048
	4.870186
	4.961675
	4.925272
	4.760335
	4.479427
	4.089958
	3.602240
	3.027548
	2.374903
	1.665890
	0.919836
	0.152526
	-0.618647
	-1.377898
	-2.105580
	-2.777212
	-3.380553
	-3.902396
	-4.331791
	-4.659071
	-4.867165
	-4.952529
	-4.917417
	-4.756998
	-4.481257
	-4.090518
	-3.598310
	-3.021061
	-2.371012
	-1.666201
	-0.918869
	-0.144476
	0.628631
	1.384669
	2.106566
	2.779504
	3.388985
	3.915681
	4.341228
	4.659504
	4.870186
	4.960386
	4.923662
	4.761946
	4.478782
	4.089314
	3.601596
	3.026581
	2.377802
	1.665568
	0.918225
	0.151881
	-0.620258
	-1.376288
	-2.102681
	-2.777856
	-3.379908
	-3.902074
	-4.331468
	-4.656816
	-4.868776
	-4.954140
	-4.916451
	-4.756353
	-4.478358
	-4.091484
	-3.599276
	-3.020739
	-2.371012
	-1.663624
	-0.918869
	-0.148342
	0.628631
	1.385636
	2.109788
	2.781114
	3.384475
	3.912137
	4.342517
	4.665303
	4.873085
	4.955876
	4.920440
	4.763878
	4.482970
	4.092858
	3.598696
	3.022394
	2.376192
	1.669755
	0.920158
	0.150271
	-0.622835
	-1.377576
	-2.099460
	-2.773024
	-3.381197
	-3.904973
	-4.333723
	-4.654239
	-4.863944
	-4.954462
	-4.920316
	-4.758608
	-4.476425
	-4.085364
	-3.597343
	-3.023316
	-2.373267
	-1.664590
	-0.912748
	-0.145120
	0.623799
	1.382737
	2.108177
	2.784014
	3.391562
	3.911493
	4.339617
	4.663048
	4.873407
	4.963285
	4.923984
	4.758724
	4.480071
	4.093180
	3.603528
	3.027870
	2.372970
	1.666856
	0.923701
	0.152848
	-0.619935
	-1.380153
	-2.105258
	-2.773024
	-3.378620
	-3.904007
	-4.333079
	-4.658749
	-4.864910
	-4.951562
	-4.918061
	-4.757642
	-4.481902
	-4.089552
	-3.596699
	-3.021705
	-2.371656
	-1.664913
	-0.919513
	-0.144798
	0.628631
	1.383381
	2.107211
	2.780470
	3.388985
	3.915359
	4.342839
	4.662726
	4.870830
	4.958775
	4.924950
	4.763878
	4.480715
	4.090603
	3.599985
	3.026581
	2.379413
	1.668789
	0.919192
	0.151237
	-0.621224
	-1.375644
	-2.100748
	-2.777534
	-3.381841
	-3.903363
	-4.330824
	-4.653273
	-4.865877
	-4.955106
	-4.917739
	-4.756676
	-4.475137
	-4.086653
	-3.600887
	-3.024604
	-2.371334
	-1.660403
	-0.914359
	-0.147375
	0.624121
	1.384025
	2.110432
	2.784014
	3.386086
	3.908916
	4.341228
	4.664981
	4.874374
	4.960064
	4.918507
	4.761623
	4.483615
	4.092535
	3.602562
	3.021749
	2.374581
	1.671366
	0.922413
	0.153814
	-0.622835
	-1.378221
	-2.099460
	-2.773024
	-3.381197
	-3.905940
	-4.332435
	-4.655528
	-4.864588
	-4.955428
	-4.918061
	-4.755387
	-4.476425
	-4.086975
	-3.600887
	-3.023960
	-2.369723
	-1.662980
	-0.916292
	-0.148664
	0.625410
	1.386280
	2.110432
	2.781759
	3.386408
	3.912137
	4.343161
	4.665947
	4.870830
	4.958131
	4.923340
	4.764523
	4.484259
	4.090603
	3.600307
	3.026904
	2.377480
	1.670400
	0.921769
	0.150271
	-0.619291
	-1.374677
	-2.100104
	-2.774313
	-3.382485
	-3.902396
	-4.330180
	-4.655206
	-4.866521
	-4.954462
	-4.915484
	-4.755065
	-4.476103
	-4.090196
	-3.600565
	-3.021383
	-2.369723
	-1.662980
	-0.919513
	-0.148019
	0.627987
	1.385636
	2.109143
	2.778537
	3.385441
	3.912782
	4.341228
	4.664658
	4.871152
	4.957165
	4.924306
	4.764523
	4.483615
	4.091569
	3.598696
	3.025293
	2.376514
	1.668789
	0.920158
	0.150915
	-0.620258
	-1.374999
	-2.098816
	-2.774957
	-3.381841
	-3.905296
	-4.332113
	-4.655206
	-4.864910
	-4.954140
	-4.919028
	-4.756998
	-4.475781
	-4.089552
	-3.601531
	-3.021705
	-2.371656
	-1.662336
	-0.917902
	-0.149952
	0.627343
	1.386924
	2.110432
	2.781759
	3.385763
	3.914392
	4.345416
	4.663048
	4.870830
	4.959420
	4.924628
	4.764523
	4.481037
	4.089636
	3.604173
	3.027870
	2.377480
	1.668145
	0.917903
	0.154458
	-0.618647
	-1.378221
	-2.101715
	-2.772380
	-3.376365
	-3.900142
	-4.333079
	-4.657138
	-4.862333
	-4.952207
	-4.917095
	-4.758608
	-4.477392
	-4.085686
	-3.598632
	-3.023316
	-2.373589
	-1.664268
	-0.915648
	-0.145442
	0.622833
	1.382092
	2.109466
	2.783047
	3.390273
	3.910849
	4.338651
	4.666591
	4.873729
	4.960708
	4.923017
	4.757758
	4.482648
	4.094468
	3.602562
	3.024004
	2.375225
	1.669755
	0.924990
	0.151881
	-0.622835
	-1.376932
	-2.100748
	-2.772380
	-3.379586
	-3.905940
	-4.331468
	-4.654884
	-4.864266
	-4.954784
	-4.920316
	-4.756676
	-4.475781
	-4.088585
	-3.599920
	-3.023316
	-2.370045
	-1.661369
	-0.916292
	-0.149952
	0.626698
	1.384992
	2.109466
	2.781436
	3.385119
	3.915037
	4.343805
	4.663370
	4.871152
	4.959742
	4.923984
	4.765489
	4.481360
	4.091247
	3.605461
	3.028192
	2.377802
	1.670400
	0.920480
	0.155425
	-0.616070
	-1.377576
	-2.102359
	-2.773346
	-3.378620
	-3.900786
	-4.332113
	-4.658749
	-4.864588
	-4.951562
	-4.916773
	-4.756031
	-4.481902
	-4.088263
	-3.597021
	-3.021705
	-2.372944
	-1.666845
	-0.917580
	-0.144154
	0.626698
	1.381126
	2.108821
	2.783691
	3.388985
	3.912459
	4.337684
	4.663048
	4.874374
	4.960386
	4.922373
	4.758724
	4.480393
	4.094790
	3.601918
	3.023038
	2.373937
	1.667823
	0.924668
	0.154136
	-0.622512
	-1.378543
	-2.101071
	-2.772702
	-3.377976
	-3.906262
	-4.333079
	-4.652951
	-4.864588
	-4.952851
	-4.919350
	-4.758931
	-4.475781
	-4.087941
	-3.599598
	-3.024926
	-2.373911
	-1.662980
	-0.915970
	-0.150596
	0.623155
	1.383703
	2.109788
	2.784336
	3.385763
	3.908916
	4.342517
	4.663370
	4.873407
	4.957165
	4.920118
	4.763556
	4.483615
	4.091891
	3.600951
	3.023360
	2.377802
	1.671366
	0.922091
	0.151559
	-0.621546
	-1.375321
	-2.098816
	-2.773668
	-3.382808
	-3.903363
	-4.331468
	-4.653595
	-4.866199
	-4.956072
	-4.917417
	-4.756998
	-4.476747
	-4.089230
	-3.601531
	-3.022349
	-2.371334
	-1.663624
	-0.916936
	-0.149630
	0.625410
	1.383381
	2.109143
	2.781114
	3.384153
	3.913426
	4.342839
	4.664014
	4.871797
	4.956520
	4.922051
	4.764523
	4.481682
	4.090280
	3.600629
	3.026904
	2.379735
	1.668789
	0.920158
	0.153170
	-0.618969
	-1.375321
	-2.100426
	-2.776245
	-3.378942
	-3.900786
	-4.331791
	-4.655850
	-4.868454
	-4.951885
	-4.916128
	-4.756998
	-4.479647
	-4.091162
	-3.599276
	-3.020094
	-2.372944
	-1.666201
	-0.919191
	-0.147697
	0.626054
	1.382737
	2.103667
	2.780792
	3.389307
	3.914714
	4.341872
	4.660471
	4.874052
	4.961675
	4.923984
	4.760979
	4.480715
	4.094146
	3.604817
	3.024326
	2.374903
	1.670077
	0.924990
	0.156069
	-0.620580
	-1.379831
	-2.099460
	-2.772380
	-3.377009
	-3.903685
	-4.333401
	-4.652951
	-4.864588
	-4.952851
	-4.920638
	-4.759253
	-4.478680
	-4.088263
	-3.601531
	-3.025893
	-2.373267
	-1.664590
	-0.915325
	-0.149952
	0.623155
	1.384669
	2.108821
	2.782725
	3.387696
	3.909560
	4.341550
	4.664981
	4.873729
	4.960708
	4.919474
	4.760013
	4.483937
	4.093824
	3.602562
	3.024326
	2.374903
	1.671366
	0.924990
	0.153492
	-0.620902
	-1.377576
	-2.100426
	-2.772058
	-3.380875
	-3.905940
	-4.330824
	-4.655206
	-4.863944
	-4.954140
	-4.918061
	-4.755065
	-4.477714
	-4.090518
	-3.601853
	-3.024604
	-2.372300
	-1.663946
	-0.918547
	-0.149952
	0.626054
	1.385636
	2.110110
	2.780148
	3.385119
	3.912782
	4.342194
	4.664014
	4.872119
	4.957165
	4.924950
	4.765167
	4.483937
	4.089958
	3.601596
	3.027870
	2.378769
	1.668145
	0.919192
	0.154780
	-0.617681
	-1.374999
	-2.102037
	-2.775601
	-3.378298
	-3.900142
	-4.332435
	-4.658105
	-4.865555
	-4.952529
	-4.915484
	-4.756031
	-4.479969
	-4.086008
	-3.598632
	-3.022671
	-2.373589
	-1.668134
	-0.917258
	-0.146087
	0.625732
	1.381448
	2.108177
	2.781114
	3.388663
	3.911493
	4.335107
	4.661437
	4.874374
	4.961675
	4.924628
	4.760657
	4.482648
	4.096723
	3.604173
	3.025293
	2.374581
	1.668145
	0.923379
	0.152848
	-0.624123
	-1.378865
	-2.099782
	-2.773024
	-3.377976
	-3.905618
	-4.335656
	-4.654884
	-4.865232
	-4.953495
	-4.920960
	-4.759575
	-4.476747
	-4.087941
	-3.601531
	-3.024282
	-2.374233
	-1.665235
	-0.915970
	-0.149952
	0.622189
	1.385636
	2.108821
	2.782403
	3.386730
	3.909882
	4.343161
	4.664981
	4.870830
	4.958131
	4.922695
	4.764845
	4.485225
	4.089314
	3.601918
	3.028192
	2.376836
	1.667823
	0.919836
	0.152203
	-0.617358
	-1.374999
	-2.104292
	-2.775279
	-3.378620
	-3.901752
	-4.330824
	-4.659071
	-4.866199
	-4.952529
	-4.917417
	-4.756031
	-4.481579
	-4.092129
	-3.597988
	-3.024282
	-2.373589
	-1.668456
	-0.919513
	-0.147375
	0.626054
	1.381126
	2.105278
	2.780792
	3.388341
	3.914070
	4.338329
	4.660471
	4.873407
	4.960386
	4.924628
	4.761623
	4.478460
	4.093180
	3.604817
	3.025293
	2.376192
	1.666856
	0.923057
	0.155747
	-0.619935
	-1.378865
	-2.101393
	-2.773024
	-3.377009
	-3.902074
	-4.334690
	-4.655528
	-4.863944
	-4.951240
	-4.916773
	-4.760863
	-4.478680
	-4.087619
	-3.598954
	-3.022349
	-2.374877
	-1.666845
	-0.914359
	-0.147053
	0.625088
	1.381126
	2.106888
	2.782725
	3.389951
	3.908594
	4.338007
	4.662726
	4.873407
	4.962319
	4.921085
	4.759691
	4.484903
	4.093824
	3.604495
	3.024971
	2.373615
	1.670400
	0.924990
	0.152203
	-0.621224
	-1.378865
	-2.101071
	-2.771736
	-3.378620
	-3.906584
	-4.333079
	-4.656816
	-4.863944
	-4.952851
	-4.921605
	-4.757320
	-4.477070
	-4.087941
	-3.599920
	-3.026859
	-2.373267
	-1.662013
	-0.917258
	-0.148986
	0.623477
	1.383703
	2.109788
	2.783369
	3.385119
	3.908916
	4.340584
	4.663370
	4.873407
	4.957487
	4.919474
	4.765167
	4.484903
	4.093824
	3.601918
	3.023360
	2.378447
	1.670722
	0.921124
	0.150915
	-0.619613
	-1.374355
	-2.098494
	-2.776245
	-3.380875
	-3.900464
	-4.330502
	-4.653595
	-4.867165
	-4.954140
	-4.914840
	-4.757320
	-4.477714
	-4.090840
	-3.601209
	-3.019772
	-2.371978
	-1.666523
	-0.919191
	-0.148342
	0.627021
	1.385636
	2.105922
	2.778859
	3.389629
	3.912137
	4.341872
	4.661115
	4.872119
	4.962641
	4.923984
	4.762268
	4.481360
	4.093824
	3.606106
	3.028192
	2.374581
	1.670077
	0.922413
	0.155103
	-0.618003
	-1.379509
	-2.102681
	-2.770125
	-3.376687
	-3.902074
	-4.334045
	-4.657783
	-4.862333
	-4.951562
	-4.919028
	-4.759253
	-4.478680
	-4.087941
	-3.597988
	-3.024604
	-2.374233
	-1.664268
	-0.917258
	-0.146409
	0.622511
	1.381770
	2.110432
	2.783047
	3.387696
	3.910849
	4.339295
	4.664658
	4.874052
	4.957165
	4.920762
	4.762590
	4.483615
	4.095435
	3.601596
	3.024326
	2.379091
	1.670722
	0.923379
	0.149626
	-0.622190
	-1.374677
	-2.100104
	-2.775279
	-3.381197
	-3.902396
	-4.329858
	-4.654239
	-4.867165
	-4.954140
	-4.916773
	-4.756353
	-4.477714
	-4.090840
	-3.600242
	-3.021383
	-2.370367
	-1.665235
	-0.921124
	-0.147053
	0.626698
	1.383703
	2.107211
	2.778537
	3.389307
	3.914392
	4.340906
	4.661759
	4.872763
	4.961030
	4.925272
	4.762590
	4.479749
	4.093180
	3.605461
	3.028192
	2.378447
	1.667823
	0.921769
	0.155747
	-0.618647
	-1.375644
	-2.102681
	-2.774957
	-3.377009
	-3.900786
	-4.331791
	-4.657138
	-4.865877
	-4.951562
	-4.916128
	-4.756676
	-4.479325
	-4.090518
	-3.598310
	-3.021061
	-2.371978
	-1.666845
	-0.919191
	-0.147697
	0.626376
	1.385314
	2.105922
	2.779504
	3.388985
	3.912137
	4.341872
	4.663370
	4.869219
	4.960064
	4.924950
	4.762912
	4.481037
	4.088992
	3.602884
	3.029158
	2.377480
	1.670400
	0.920802
	0.154136
	-0.615748
	-1.375321
	-2.100748
	-2.775923
	-3.377976
	-3.900786
	-4.330824
	-4.657138
	-4.866521
	-4.954140
	-4.916451
	-4.756998
	-4.479969
	-4.091807
	-3.601853
	-3.021061
	-2.370367
	-1.665879
	-0.921124
	-0.149630
	0.625732
	1.384025
	2.107533
	2.776604
	3.387374
	3.912137
	4.340584
	4.663692
	4.868575
	4.959098
	4.925917
	4.762912
	4.482648
	4.088670
	3.601274
	3.030125
	2.378124
	1.668145
	0.920802
	0.151881
	-0.617036
	-1.374677
	-2.101715
	-2.774957
	-3.377976
	-3.902396
	-4.329858
	-4.657461
	-4.866199
	-4.951885
	-4.916451
	-4.754743
	-4.479647
	-4.090196
	-3.598632
	-3.022027
	-2.372622
	-1.667167
	-0.919191
	-0.145120
	0.626698
	1.382092
	2.105922
	2.779826
	3.388341
	3.911815
	4.338007
	4.660471
	4.870508
	4.962319
	4.924950
	4.760013
	4.481037
	4.092858
	3.604817
	3.027870
	2.374903
	1.667500
	0.925312
	0.155425
	-0.617681
	-1.378543
	-2.101715
	-2.769803
	-3.377009
	-3.902074
	-4.333079
	-4.656172
	-4.862333
	-4.952851
	-4.918383
	-4.758931
	-4.478358
	-4.086975
	-3.598632
	-3.024604
	-2.375199
	-1.666523
	-0.916936
	-0.147053
	0.622511
	1.381126
	2.107855
	2.782081
	3.388663
	3.909238
	4.338651
	4.664336
	4.873407
	4.961353
	4.919796
	4.761301
	4.484581
	4.094790
	3.602884
	3.024004
	2.376836
	1.672010
	0.924024
	0.153170
	-0.621224
	-1.376932
	-2.096883
	-2.771413
	-3.377976
	-3.903041
	-4.330502
	-4.652307
	-4.863300
	-4.953817
	-4.919994
	-4.756998
	-4.475459
	-4.087619
	-3.599920
	-3.024604
	-2.372300
	-1.661691
	-0.915970
	-0.149308
	0.622833
	1.382737
	2.109788
	2.782081
	3.386730
	3.909882
	4.338973
	4.664981
	4.875018
	4.960064
	4.921407
	4.760979
	4.485225
	4.096401
	3.603528
	3.025937
	2.375870
	1.672655
	0.926279
	0.153814
	-0.619613
	-1.378865
	-2.099460
	-2.769159
	-3.376365
	-3.903041
	-4.331791
	-4.655206
	-4.862011
	-4.952529
	-4.918383
	-4.759253
	-4.479002
	-4.087297
	-3.598310
	-3.024926
	-2.373589
	-1.663624
	-0.915648
	-0.145765
	0.622511
	1.382092
	2.110110
	2.782403
	3.389629
	3.909238
	4.339939
	4.665947
	4.874052
	4.960386
	4.921407
	4.760979
	4.484903
	4.094146
	3.601596
	3.025937
	2.378447
	1.672655
	0.924024
	0.151881
	-0.618325
	-1.375321
	-2.098171
	-2.771413
	-3.380231
	-3.900786
	-4.328891
	-4.653917
	-4.865232
	-4.954462
	-4.916128
	-4.756353
	-4.479647
	-4.091484
	-3.600242
	-3.021383
	-2.370045
	-1.668134
	-0.921446
	-0.147697
	0.626376
	1.383059
	2.105922
	2.779181
	3.388985
	3.913104
	4.338329
	4.660148
	4.873407
	4.961675
	4.926239
	4.761946
	4.482326
	4.097045
	3.606106
	3.029803
	2.376192
	1.669433
	0.926601
	0.156391
	-0.619613
	-1.377254
	-2.099782
	-2.770125
	-3.376365
	-3.903363
	-4.334045
	-4.654884
	-4.862655
	-4.951240
	-4.918706
	-4.759897
	-4.477070
	-4.088585
	-3.597988
	-3.023960
	-2.376166
	-1.667490
	-0.917580
	-0.146731
	0.626376
	1.379193
	2.104311
	2.781436
	3.389307
	3.914392
	4.338329
	4.660471
	4.873729
	4.961353
	4.924950
	4.762590
	4.479427
	4.094146
	3.606750
	3.028836
	2.378447
	1.668145
	0.923701
	0.157680
	-0.618325
	-1.376288
	-2.100426
	-2.772702
	-3.375721
	-3.899175
	-4.332113
	-4.656172
	-4.863622
	-4.951240
	-4.915484
	-4.758608
	-4.480291
	-4.089874
	-3.597988
	-3.021383
	-2.372944
	-1.667812
	-0.920802
	-0.148664
	0.626698
	1.383703
	2.105278
	2.780148
	3.388018
	3.914070
	4.343161
	4.662403
	4.869864
	4.960708
	4.926239
	4.765811
	4.482648
	4.091247
	3.605139
	3.030125
	2.381024
	1.670722
	0.922091
	0.153492
	-0.617681
	-1.373389
	-2.099138
	-2.774635
	-3.380231
	-3.902074
	-4.330502
	-4.653273
	-4.866199
	-4.955428
	-4.918061
	-4.755065
	-4.476425
	-4.088907
	-3.601531
	-3.023960
	-2.372622
	-1.664268
	-0.916614
	-0.150919
	0.621867
	1.382737
	2.107855
	2.781759
	3.384475
	3.907627
	4.341550
	4.664658
	4.875018
	4.959742
	4.920118
	4.763556
	4.485225
	4.094146
	3.604495
	3.024326
	2.376836
	1.673943
	0.924990
	0.155747
	-0.620902
	-1.377576
	-2.097205
	-2.769481
	-3.378298
	-3.904329
	-4.333723
	-4.653273
	-4.861367
	-4.951885
	-4.917739
	-4.759253
	-4.478036
	-4.087619
	-3.599598
	-3.024604
	-2.375844
	-1.667167
	-0.916614
	-0.146409
	0.623477
	1.380482
	2.105600
	2.782725
	3.388341
	3.910204
	4.338007
	4.660471
	4.873085
	4.964574
	4.925917
	4.763234
	4.482004
	4.092858
	3.606428
	3.030125
	2.376836
	1.670077
	0.921769
	0.156069
	-0.615426
	-1.374999
	-2.100426
	-2.772380
	-3.376687
	-3.901108
	-4.330824
	-4.657461
	-4.866521
	-4.951885
	-4.915806
	-4.756353
	-4.479969
	-4.092773
	-3.601531
	-3.022671
	-2.372300
	-1.665879
	-0.921768
	-0.149952
	0.626698
	1.383703
	2.108499
	2.777571
	3.386408
	3.913748
	4.341872
	4.663692
	4.871152
	4.957165
	4.926239
	4.765489
	4.482970
	4.091891
	3.602240
	3.027870
	2.379091
	1.669755
	0.921769
	0.156069
	-0.616392
	-1.372744
	-2.098171
	-2.775279
	-3.377331
	-3.900142
	-4.330502
	-4.654884
	-4.866521
	-4.951885
	-4.915162
	-4.756998
	-4.478036
	-4.091484
	-3.601531
	-3.021061
	-2.372622
	-1.667490
	-0.919835
	-0.149308
	0.625410
	1.384669
	2.106888
	2.778859
	3.388018
	3.912459
	4.342517
	4.663370
	4.868575
	4.960064
	4.925595
	4.763556
	4.484581
	4.090925
	3.603528
	3.031736
	2.378447
	1.669755
	0.921769
	0.153170
	-0.615748
	-1.373711
	-2.100104
	-2.773990
	-3.377976
	-3.900786
	-4.329858
	-4.658105
	-4.865877
	-4.951240
	-4.917095
	-4.756353
	-4.479325
	-4.091162
	-3.598310
	-3.021383
	-2.371656
	-1.664913
	-0.922090
	-0.149308
	0.625732
	1.383059
	2.107855
	2.779504
	3.385441
	3.914714
	4.342517
	4.663692
	4.871152
	4.957487
	4.924628
	4.765811
	4.483292
	4.092535
	3.603206
	3.029158
	2.381990
	1.672655
	0.920480
	0.153814
	-0.617358
	-1.374355
	-2.097527
	-2.774957
	-3.379264
	-3.899497
	-4.329858
	-4.652951
	-4.866199
	-4.957361
	-4.917095
	-4.756998
	-4.477392
	-4.088907
	-3.603786
	-3.021061
	-2.371012
	-1.665235
	-0.919513
	-0.151563
	0.623799
	1.384669
	2.108821
	2.777571
	3.387052
	3.912459
	4.341872
	4.666269
	4.870186
	4.959098
	4.925917
	4.763878
	4.484259
	4.091569
	3.601918
	3.031091
	2.379413
	1.671366
	0.922735
	0.152848
	-0.617036
	-1.374033
	-2.100104
	-2.774313
	-3.377009
	-3.900786
	-4.329858
	-4.655850
	-4.866199
	-4.952851
	-4.916451
	-4.756031
	-4.477070
	-4.092451
	-3.601531
	-3.022993
	-2.371978
	-1.663946
	-0.921446
	-0.150274
	0.626698
	1.382415
	2.107533
	2.777893
	3.385441
	3.914392
	4.341550
	4.663048
	4.872763
	4.959420
	4.925917
	4.765811
	4.482004
	4.090603
	3.603528
	3.029481
	2.381024
	1.671366
	0.921124
	0.156069
	-0.615748
	-1.374355
	-2.098494
	-2.773990
	-3.377976
	-3.899497
	-4.331146
	-4.656494
	-4.865877
	-4.953173
	-4.915162
	-4.756031
	-4.479647
	-4.090840
	-3.600565
	-3.021061
	-2.372300
	-1.668456
	-0.920479
	-0.147697
	0.626698
	1.384669
	2.105922
	2.778215
	3.389629
	3.912137
	4.341872
	4.662726
	4.870830
	4.962319
	4.924950
	4.765167
	4.482970
	4.090603
	3.605461
	3.031413
	2.379091
	1.670722
	0.922735
	0.154458
	-0.615426
	-1.375966
	-2.100748
	-2.773668
	-3.378298
	-3.900142
	-4.331468
	-4.656494
	-4.864588
	-4.952529
	-4.916128
	-4.758286
	-4.481257
	-4.089874
	-3.598954
	-3.021383
	-2.375521
	-1.669100
	-0.918547
	-0.148986
	0.626054
	1.380160
	2.104634
	2.782725
	3.388985
	3.912782
	4.340262
	4.660148
	4.873085
	4.962319
	4.925272
	4.763878
	4.480393
	4.093180
	3.607716
	3.028514
	2.378124
	1.669755
	0.925634
	0.157358
	-0.618325
	-1.377898
	-2.100104
	-2.770447
	-3.376043
	-3.899819
	-4.333723
	-4.655528
	-4.863622
	-4.952851
	-4.917739
	-4.760863
	-4.477392
	-4.086330
	-3.599276
	-3.023960
	-2.374233
	-1.665557
	-0.915970
	-0.148986
	0.621222
	1.380482
	2.106888
	2.782403
	3.388985
	3.908594
	4.339295
	4.666269
	4.873729
	4.962319
	4.921729
	4.761623
	4.486514
	4.095757
	3.605461
	3.026904
	2.378124
	1.674587
	0.925956
	0.152848
	-0.619291
	-1.374677
	-2.097527
	-2.768836
	-3.378298
	-3.902074
	-4.328891
	-4.653595
	-4.861045
	-4.955106
	-4.919350
	-4.756676
	-4.479002
	-4.088907
	-3.603142
	-3.026537
	-2.371334
	-1.664268
	-0.917580
	-0.151563
	0.620900
	1.382092
	2.108821
	2.781114
	3.385763
	3.909560
	4.341228
	4.666591
	4.873729
	4.958131
	4.923662
	4.764523
	4.485225
	4.093824
	3.601596
	3.028514
	2.381346
	1.672655
	0.925312
	0.153492
	-0.619291
	-1.371778
	-2.097527
	-2.772702
	-3.378620
	-3.902074
	-4.329536
	-4.653595
	-4.864588
	-4.954462
	-4.916773
	-4.757320
	-4.476747
	-4.090840
	-3.602819
	-3.023638
	-2.372622
	-1.664913
	-0.918547
	-0.151885
	0.622511
	1.382415
	2.107211
	2.781759
	3.384153
	3.909882
	4.342194
	4.664336
	4.873085
	4.957487
	4.922695
	4.766133
	4.484903
	4.092858
	3.601274
	3.028514
	2.382312
	1.672655
	0.923057
	0.153492
	-0.616714
	-1.373067
	-2.098494
	-2.773346
	-3.377654
	-3.900786
	-4.330180
	-4.655206
	-4.867487
	-4.952529
	-4.916128
	-4.756031
	-4.479647
	-4.092773
	-3.597988
	-3.023960
	-2.375199
	-1.668134
	-0.920157
	-0.146731
	0.626376
	1.381448
	2.105278
	2.779181
	3.388018
	3.911815
	4.337362
	4.659504
	4.873085
	4.961030
	4.925595
	4.763234
	4.480715
	4.096401
	3.605783
	3.028836
	2.376514
	1.668145
	0.926923
	0.156713
	-0.618003
	-1.376610
	-2.101071
	-2.770125
	-3.375399
	-3.902719
	-4.334368
	-4.655850
	-4.863300
	-4.952207
	-4.919350
	-4.758931
	-4.478358
	-4.087941
	-3.598954
	-3.026215
	-2.376488
	-1.666845
	-0.918547
	-0.148342
	0.623155
	1.378871
	2.106244
	2.781436
	3.387696
	3.909882
	4.335429
	4.662081
	4.875018
	4.961997
	4.922373
	4.761623
	4.484903
	4.096401
	3.606106
	3.026904
	2.376514
	1.672332
	0.926601
	0.156391
	-0.620258
	-1.376932
	-2.098494
	-2.770125
	-3.374754
	-3.903685
	-4.330824
	-4.653917
	-4.862333
	-4.953495
	-4.919672
	-4.757642
	-4.478680
	-4.089230
	-3.600887
	-3.025248
	-2.373267
	-1.664913
	-0.919513
	-0.150274
	0.618323
	1.380804
	2.108177
	2.780792
	3.386086
	3.907627
	4.340584
	4.665625
	4.872119
	4.957809
	4.922373
	4.763234
	4.484903
	4.092213
	3.601596
	3.027870
	2.379091
	1.672655
	0.923057
	0.151881
	-0.619291
	-1.374677
	-2.099460
	-2.771413
	-3.380553
	-3.902396
	-4.329214
	-4.653595
	-4.864910
	-4.956072
	-4.919350
	-4.756031
	-4.478680
	-4.089874
	-3.603142
	-3.027181
	-2.373911
	-1.666523
	-0.918547
	-0.152207
	0.618967
	1.381770
	2.106244
	2.780792
	3.387696
	3.907627
	4.337362
	4.663048
	4.873085
	4.961030
	4.920762
	4.758724
	4.484903
	4.094146
	3.606428
	3.026581
	2.374581
	1.672332
	0.925312
	0.154780
	-0.618969
	-1.379509
	-2.100104
	-2.770447
	-3.377331
	-3.901752
	-4.335012
	-4.657783
	-4.863622
	-4.953495
	-4.917417
	-4.760219
	-4.483834
	-4.090840
	-3.601531
	-3.023960
	-2.376166
	-1.671033
	-0.920479
	-0.148342
	0.623155
	1.379515
	2.102056
	2.777893
	3.388341
	3.909882
	4.339295
	4.659826
	4.866642
	4.960386
	4.924306
	4.763556
	4.481682
	4.090280
	3.605139
	3.029481
	2.378769
	1.669433
	0.921124
	0.155425
	-0.615748
	-1.374355
	-2.100104
	-2.774635
	-3.377009
	-3.900142
	-4.331791
	-4.657461
	-4.866521
	-4.951562
	-4.915806
	-4.757320
	-4.479969
	-4.092451
	-3.600242
	-3.021383
	-2.373589
	-1.668134
	-0.922412
	-0.151563
	0.624766
	1.381770
	2.106566
	2.778859
	3.383509
	3.911493
	4.341872
	4.663692
	4.871797
	4.957487
	4.923662
	4.765811
	4.483615
	4.092535
	3.602884
	3.028514
	2.381990
	1.672977
	0.922735
	0.154136
	-0.618647
	-1.373067
	-2.095917
	-2.772380
	-3.378620
	-3.901108
	-4.330502
	-4.652629
	-4.865877
	-4.955428
	-4.916451
	-4.756998
	-4.476425
	-4.089874
	-3.603142
	-3.024604
	-2.373589
	-1.666523
	-0.920479
	-0.152851
	0.621544
	1.382415
	2.107533
	2.782403
	3.385441
	3.908916
	4.340262
	4.664658
	4.872763
	4.956198
	4.922373
	4.765811
	4.485870
	4.096079
	3.602884
	3.027870
	2.381990
	1.674587
	0.925312
	0.154780
	-0.619291
	-1.372422
	-2.096883
	-2.770769
	-3.377009
	-3.904329
	-4.329858
	-4.653917
	-4.863622
	-4.952529
	-4.919672
	-4.757642
	-4.476425
	-4.088907
	-3.600242
	-3.027181
	-2.372944
	-1.663624
	-0.919513
	-0.151241
	0.621544
	1.380804
	2.109466
	2.780470
	3.385119
	3.909882
	4.340584
	4.668202
	4.874052
	4.958775
	4.923340
	4.764523
	4.486514
	4.095113
	3.603206
	3.029481
	2.381668
	1.676520
	0.927567
	0.153814
	-0.618969
	-1.374033
	-2.097527
	-2.769481
	-3.378942
	-3.904329
	-4.329536
	-4.651984
	-4.861689
	-4.952851
	-4.920316
	-4.758286
	-4.477070
	-4.088585
	-3.600565
	-3.027825
	-2.375199
	-1.665557
	-0.917580
	-0.148664
	0.620900
	1.379838
	2.108177
	2.782081
	3.388018
	3.908916
	4.336396
	4.664981
	4.873729
	4.962319
	4.923340
	4.760335
	4.484903
	4.095435
	3.605783
	3.028514
	2.376836
	1.672655
	0.928533
	0.156713
	-0.616392
	-1.377576
	-2.098816
	-2.769803
	-3.376365
	-3.900786
	-4.331468
	-4.655850
	-4.861367
	-4.951562
	-4.915806
	-4.756998
	-4.483190
	-4.089552
	-3.598632
	-3.022993
	-2.373911
	-1.670067
	-0.920157
	-0.146409
	0.624444
	1.381770
	2.104634
	2.779504
	3.389307
	3.913104
	4.338329
	4.661437
	4.872441
	4.963285
	4.926561
	4.763234
	4.482326
	4.093180
	3.606106
	3.031413
	2.379413
	1.669433
	0.925312
	0.157680
	-0.615104
	-1.374355
	-2.101071
	-2.770125
	-3.375399
	-3.901752
	-4.332435
	-4.657461
	-4.863622
	-4.950918
	-4.916451
	-4.757320
	-4.481257
	-4.090196
	-3.599276
	-3.023638
	-2.374555
	-1.669422
	-0.920802
	-0.148986
	0.624766
	1.379838
	2.105600
	2.782403
	3.388663
	3.913748
	4.337684
	4.661437
	4.874696
	4.962319
	4.925272
	4.761946
	4.482648
	4.097045
	3.608361
	3.028836
	2.377802
	1.671366
	0.926601
	0.159612
	-0.617036
	-1.375644
	-2.098816
	-2.768514
	-3.374754
	-3.900142
	-4.332435
	-4.656816
	-4.863622
	-4.950918
	-4.917095
	-4.759897
	-4.480291
	-4.088263
	-3.597988
	-3.024604
	-2.376488
	-1.666845
	-0.919191
	-0.148664
	0.622833
	1.378549
	2.105600
	2.783691
	3.388018
	3.912137
	4.338007
	4.663048
	4.875984
	4.962963
	4.923340
	4.762590
	4.483615
	4.097690
	3.607072
	3.027870
	2.377802
	1.672655
	0.925956
	0.157358
	-0.619291
	-1.375644
	-2.095917
	-2.769159
	-3.373144
	-3.901752
	-4.332757
	-4.652629
	-4.863300
	-4.951562
	-4.919028
	-4.761830
	-4.477714
	-4.089874
	-3.599920
	-3.025248
	-2.377454
	-1.666201
	-0.917902
	-0.149952
	0.623477
	1.378227
	2.105922
	2.783691
	3.387374
	3.909882
	4.338329
	4.662726
	4.876307
	4.962963
	4.923017
	4.762268
	4.482648
	4.095757
	3.609005
	3.029158
	2.379091
	1.672332
	0.925956
	0.158646
	-0.615748
	-1.375966
	-2.099782
	-2.769159
	-3.375399
	-3.897887
	-4.331146
	-4.655528
	-4.862655
	-4.950596
	-4.915484
	-4.757642
	-4.483512
	-4.089874
	-3.600242
	-3.022671
	-2.373589
	-1.669422
	-0.921768
	-0.147375
	0.624121
	1.384025
	2.105600
	2.777893
	3.386408
	3.912137
	4.341228
	4.665947
	4.870186
	4.958775
	4.925917
	4.764523
	4.485547
	4.093502
	3.602562
	3.032058
	2.382312
	1.675232
	0.926279
	0.154136
	-0.616070
	-1.373389
	-2.096561
	-2.769803
	-3.378620
	-3.902396
	-4.328247
	-4.652951
	-4.862011
	-4.954462
	-4.919350
	-4.756031
	-4.477714
	-4.089552
	-3.603142
	-3.026215
	-2.372300
	-1.665879
	-0.919835
	-0.150596
	0.620578
	1.382415
	2.107533
	2.779826
	3.384475
	3.907949
	4.338973
	4.666591
	4.873729
	4.959742
	4.922695
	4.764523
	4.487480
	4.096723
	3.604173
	3.027226
	2.379091
	1.674587
	0.927567
	0.155747
	-0.618003
	-1.374355
	-2.096239
	-2.769481
	-3.375721
	-3.903685
	-4.332113
	-4.653595
	-4.861689
	-4.951240
	-4.918383
	-4.757642
	-4.477392
	-4.087619
	-3.600242
	-3.027181
	-2.374555
	-1.666523
	-0.916936
	-0.147697
	0.619612
	1.381770
	2.109143
	2.780792
	3.387052
	3.906339
	4.338007
	4.665947
	4.873407
	4.961675
	4.922051
	4.762590
	4.487158
	4.096401
	3.605461
	3.027548
	2.379413
	1.674909
	0.927567
	0.155425
	-0.618969
	-1.373711
	-2.094628
	-2.767548
	-3.377654
	-3.902074
	-4.329858
	-4.652951
	-4.862978
	-4.954784
	-4.918383
	-4.757642
	-4.477070
	-4.089552
	-3.603464
	-3.024282
	-2.373589
	-1.666845
	-0.921446
	-0.153496
	0.624121
	1.382415
	2.107211
	2.779504
	3.383509
	3.909560
	4.342194
	4.663048
	4.871797
	4.957165
	4.923017
	4.766778
	4.485870
	4.093502
	3.605461
	3.029481
	2.381990
	1.675554
	0.924346
	0.155103
	-0.617036
	-1.372744
	-2.095917
	-2.769803
	-3.379586
	-3.900786
	-4.329536
	-4.653273
	-4.862333
	-4.955428
	-4.916128
	-4.756031
	-4.479002
	-4.090518
	-3.602819
	-3.022671
	-2.371012
	-1.667812
	-0.921446
	-0.151885
	0.621867
	1.384025
	2.108821
	2.778859
	3.386408
	3.911493
	4.341550
	4.666913
	4.869542
	4.958453
	4.926239
	4.764523
	4.486836
	4.093502
	3.604495
	3.033346
	2.382312
	1.673299
	0.925956
	0.155103
	-0.614459
	-1.370812
	-2.097527
	-2.772380
	-3.377009
	-3.899175
	-4.327281
	-4.653273
	-4.864910
	-4.951562
	-4.916128
	-4.756676
	-4.478358
	-4.091807
	-3.599598
	-3.022027
	-2.372944
	-1.667167
	-0.923701
	-0.148986
	0.625088
	1.381770
	2.106244
	2.777571
	3.387052
	3.914392
	4.340906
	4.662081
	4.870830
	4.961353
	4.927850
	4.765167
	4.482648
	4.093502
	3.606750
	3.032058
	2.380379
	1.670722
	0.924668
	0.157358
	-0.614137
	-1.373389
	-2.098171
	-2.771736
	-3.375721
	-3.898531
	-4.328247
	-4.654561
	-4.863944
	-4.951885
	-4.914840
	-4.754743
	-4.479325
	-4.091484
	-3.601531
	-3.022993
	-2.371012
	-1.667812
	-0.921124
	-0.147053
	0.625410
	1.384347
	2.105278
	2.777249
	3.388341
	3.911815
	4.341228
	4.662726
	4.870186
	4.963285
	4.926883
	4.765811
	4.484903
	4.092213
	3.608361
	3.033024
	2.380702
	1.671366
	0.924668
	0.158646
	-0.614781
	-1.374677
	-2.099138
	-2.768836
	-3.375077
	-3.898209
	-4.331468
	-4.655206
	-4.861689
	-4.951562
	-4.916128
	-4.759253
	-4.477714
	-4.088263
	-3.599276
	-3.022671
	-2.376810
	-1.667812
	-0.917902
	-0.149630
	0.622511
	1.378871
	2.105922
	2.783047
	3.386730
	3.908594
	4.337362
	4.662403
	4.875340
	4.961353
	4.922051
	4.763234
	4.484903
	4.097045
	3.606750
	3.027226
	2.381668
	1.674265
	0.925312
	0.153814
	-0.618647
	-1.372100
	-2.095272
	-2.772380
	-3.377331
	-3.898531
	-4.328247
	-4.652307
	-4.865877
	-4.951240
	-4.914518
	-4.756998
	-4.480613
	-4.091807
	-3.597988
	-3.022671
	-2.372944
	-1.669422
	-0.920157
	-0.148986
	0.623477
	1.379515
	2.104956
	2.780792
	3.388985
	3.911493
	4.338007
	4.664336
	4.873407
	4.962641
	4.925272
	4.760335
	4.484903
	4.096401
	3.607394
	3.031736
	2.378447
	1.673621
	0.928856
	0.157035
	-0.616392
	-1.374033
	-2.096561
	-2.766904
	-3.375721
	-3.903041
	-4.328569
	-4.652307
	-4.862333
	-4.953495
	-4.920960
	-4.756998
	-4.478680
	-4.090196
	-3.602819
	-3.027825
	-2.373911
	-1.664913
	-0.919513
	-0.151241
	0.620256
	1.381448
	2.108499
	2.779826
	3.383186
	3.908916
	4.340584
	4.667236
	4.872441
	4.958453
	4.926239
	4.767100
	4.486836
	4.094468
	3.603528
	3.031736
	2.382312
	1.672977
	0.925634
	0.157358
	-0.613493
	-1.370490
	-2.097527
	-2.771736
	-3.374432
	-3.897565
	-4.327925
	-4.654884
	-4.864266
	-4.950918
	-4.915484
	-4.756353
	-4.480935
	-4.091807
	-3.602175
	-3.022671
	-2.371656
	-1.667812
	-0.922090
	-0.149630
	0.625410
	1.383703
	2.106566
	2.776604
	3.385763
	3.912137
	4.340584
	4.664658
	4.869542
	4.960064
	4.927850
	4.765811
	4.484259
	4.094790
	3.605783
	3.033668
	2.382634
	1.672010
	0.924346
	0.157680
	-0.614137
	-1.371134
	-2.097849
	-2.773346
	-3.376043
	-3.898209
	-4.327603
	-4.653595
	-4.865877
	-4.951240
	-4.914840
	-4.756998
	-4.479647
	-4.092773
	-3.601209
	-3.022671
	-2.373589
	-1.670067
	-0.921768
	-0.148986
	0.625088
	1.381770
	2.103023
	2.779504
	3.386730
	3.911171
	4.340262
	4.659182
	4.870830
	4.962641
	4.924628
	4.762912
	4.481682
	4.094790
	3.609649
	3.030769
	2.378124
	1.671688
	0.926279
	0.158324
	-0.614459
	-1.375966
	-2.097527
	-2.767548
	-3.375399
	-3.898853
	-4.333079
	-4.654884
	-4.861367
	-4.952529
	-4.917739
	-4.760541
	-4.480613
	-4.088263
	-3.599598
	-3.024604
	-2.375844
	-1.669744
	-0.919835
	-0.149308
	0.621222
	1.378871
	2.104956
	2.780792
	3.388341
	3.908916
	4.336718
	4.664981
	4.874696
	4.962963
	4.925595
	4.760335
	4.484581
	4.098012
	3.608361
	3.032380
	2.377480
	1.671366
	0.929500
	0.158324
	-0.615426
	-1.374677
	-2.098171
	-2.767226
	-3.372500
	-3.901108
	-4.330824
	-4.654884
	-4.862333
	-4.950596
	-4.917739
	-4.758931
	-4.479969
	-4.088907
	-3.598632
	-3.024926
	-2.376488
	-1.668456
	-0.920802
	-0.149308
	0.623155
	1.377260
	2.104956
	2.780148
	3.388663
	3.910849
	4.337362
	4.663370
	4.873729
	4.963285
	4.926883
	4.762912
	4.482648
	4.098012
	3.608683
	3.031413
	2.380379
	1.670722
	0.926923
	0.159612
	-0.614781
	-1.373067
	-2.099782
	-2.769803
	-3.372500
	-3.897887
	-4.329214
	-4.655528
	-4.864266
	-4.950596
	-4.916451
	-4.756998
	-4.481257
	-4.093417
	-3.599920
	-3.023316
	-2.372300
	-1.668134
	-0.923379
	-0.150919
	0.624444
	1.381448
	2.105922
	2.777571
	3.384797
	3.913426
	4.342194
	4.664014
	4.871474
	4.959742
	4.926883
	4.768388
	4.485225
	4.093502
	3.605783
	3.032380
	2.384889
	1.675554
	0.924990
	0.156713
	-0.615748
	-1.371778
	-2.094950
	-2.771736
	-3.377009
	-3.898853
	-4.328247
	-4.650374
	-4.864910
	-4.954462
	-4.916451
	-4.756998
	-4.477070
	-4.090840
	-3.602819
	-3.024282
	-2.374233
	-1.665879
	-0.920802
	-0.154462
	0.620578
	1.380804
	2.106888
	2.781114
	3.383509
	3.907949
	4.340262
	4.664658
	4.875984
	4.959420
	4.921085
	4.764523
	4.485870
	4.097368
	3.605783
	3.027226
	2.381346
	1.675876
	0.928211
	0.157035
	-0.618003
	-1.372744
	-2.094950
	-2.768836
	-3.374754
	-3.903363
	-4.330502
	-4.652629
	-4.862655
	-4.951562
	-4.921283
	-4.758608
	-4.479325
	-4.089552
	-3.598954
	-3.027503
	-2.375521
	-1.664913
	-0.920479
	-0.149308
	0.620256
	1.378227
	2.108499
	2.779826
	3.384475
	3.907949
	4.338007
	4.665625
	4.874696
	4.959742
	4.923340
	4.765811
	4.487158
	4.097045
	3.603528
	3.029481
	2.382634
	1.674587
	0.927889
	0.155103
	-0.616392
	-1.371778
	-2.095272
	-2.769803
	-3.378298
	-3.900464
	-4.327925
	-4.651018
	-4.863622
	-4.954784
	-4.916128
	-4.754743
	-4.478358
	-4.090840
	-3.603464
	-3.025248
	-2.372944
	-1.667490
	-0.920802
	-0.153173
	0.621544
	1.382415
	2.107855
	2.779504
	3.385441
	3.906983
	4.340906
	4.667236
	4.872119
	4.960064
	4.924950
	4.765167
	4.487480
	4.096401
	3.604173
	3.030769
	2.381668
	1.675876
	0.930466
	0.155425
	-0.616714
	-1.371456
	-2.095272
	-2.767870
	-3.375721
	-3.903363
	-4.329536
	-4.651984
	-4.862011
	-4.951885
	-4.919994
	-4.758931
	-4.476747
	-4.087941
	-3.598954
	-3.025248
	-2.376810
	-1.665235
	-0.920157
	-0.150274
	0.621867
	1.377583
	2.105922
	2.783047
	3.387052
	3.910527
	4.339617
	4.663692
	4.875340
	4.963930
	4.924950
	4.763234
	4.483937
	4.095435
	3.610293
	3.032058
	2.379735
	1.672655
	0.926601
	0.160579
	-0.612527
	-1.374355
	-2.098494
	-2.769159
	-3.375077
	-3.898209
	-4.329858
	-4.655528
	-4.861367
	-4.951562
	-4.915162
	-4.757642
	-4.482224
	-4.090840
	-3.599598
	-3.022349
	-2.372300
	-1.670389
	-0.922734
	-0.148019
	0.622189
	1.381770
	2.104634
	2.775638
	3.386408
	3.912459
	4.340906
	4.664981
	4.870186
	4.958453
	4.927205
	4.764845
	4.485870
	4.094468
	3.603206
	3.032380
	2.383279
	1.675554
	0.927889
	0.155103
	-0.613815
	-1.370490
	-2.096239
	-2.768836
	-3.377976
	-3.900786
	-4.326314
	-4.651662
	-4.863622
	-4.954462
	-4.918061
	-4.756676
	-4.479325
	-4.091162
	-3.602819
	-3.024604
	-2.374233
	-1.666845
	-0.921768
	-0.152529
	0.623799
	1.382415
	2.108177
	2.776927
	3.383509
	3.910527
	4.339617
	4.664336
	4.870508
	4.959420
	4.927205
	4.765489
	4.485870
	4.094790
	3.604495
	3.032702
	2.382956
	1.674587
	0.926601
	0.156069
	-0.613493
	-1.369523
	-2.095917
	-2.770769
	-3.377009
	-3.899819
	-4.327603
	-4.653917
	-4.865232
	-4.951885
	-4.916128
	-4.755709
	-4.478036
	-4.093095
	-3.600242
	-3.024604
	-2.374233
	-1.667812
	-0.925311
	-0.150596
	0.624444
	1.380482
	2.104634
	2.778537
	3.387374
	3.912782
	4.338973
	4.662081
	4.871797
	4.961675
	4.927850
	4.764201
	4.481037
	4.095757
	3.608361
	3.032380
	2.380379
	1.669755
	0.926279
	0.157680
	-0.615104
	-1.372744
	-2.099782
	-2.769481
	-3.374110
	-3.898531
	-4.330180
	-4.655528
	-4.862333
	-4.949952
	-4.917417
	-4.759253
	-4.481257
	-4.088907
	-3.599598
	-3.023960
	-2.375199
	-1.670067
	-0.920157
	-0.148342
	0.622189
	1.378871
	2.104311
	2.779181
	3.387696
	3.909238
	4.334785
	4.661437
	4.872119
	4.963285
	4.925595
	4.760657
	4.485547
	4.098012
	3.608683
	3.031091
	2.377480
	1.673621
	0.928533
	0.157358
	-0.616392
	-1.376288
	-2.096561
	-2.767548
	-3.374754
	-3.902396
	-4.333401
	-4.654884
	-4.862655
	-4.953173
	-4.919028
	-4.759897
	-4.478680
	-4.087941
	-3.600242
	-3.026537
	-2.376810
	-1.667812
	-0.919513
	-0.149952
	0.618967
	1.377583
	2.104956
	2.779181
	3.385763
	3.906661
	4.336718
	4.663370
	4.873407
	4.961997
	4.923017
	4.762590
	4.487802
	4.096401
	3.607716
	3.027548
	2.378447
	1.675876
	0.927245
	0.157358
	-0.616714
	-1.375321
	-2.095272
	-2.765937
	-3.374432
	-3.902719
	-4.331146
	-4.653917
	-4.862333
	-4.952529
	-4.919672
	-4.758286
	-4.478036
	-4.087941
	-3.599920
	-3.028147
	-2.376488
	-1.667167
	-0.921124
	-0.150919
	0.618645
	1.377260
	2.107533
	2.780148
	3.385763
	3.908272
	4.336074
	4.664658
	4.875018
	4.960708
	4.923017
	4.760979
	4.485547
	4.098334
	3.607394
	3.029481
	2.379735
	1.674909
	0.929822
	0.159612
	-0.618325
	-1.372744
	-2.094306
	-2.767548
	-3.373788
	-3.903041
	-4.330180
	-4.650374
	-4.863622
	-4.952207
	-4.920316
	-4.761185
	-4.477392
	-4.089230
	-3.601209
	-3.026537
	-2.376810
	-1.667167
	-0.919835
	-0.153496
	0.619612
	1.379193
	2.106244
	2.780792
	3.383831
	3.906017
	4.339939
	4.664014
	4.874052
	4.960708
	4.921407
	4.764201
	4.487480
	4.096079
	3.608361
	3.029481
	2.378769
	1.676198
	0.928211
	0.158324
	-0.616714
	-1.373067
	-2.094306
	-2.766259
	-3.375721
	-3.901752
	-4.329858
	-4.651984
	-4.861045
	-4.952851
	-4.919994
	-4.756676
	-4.478358
	-4.089230
	-3.602819
	-3.027503
	-2.373589
	-1.667812
	-0.922734
	-0.153173
	0.619612
	1.381126
	2.108499
	2.779826
	3.383831
	3.908594
	4.339939
	4.664658
	4.872763
	4.957487
	4.925272
	4.765811
	4.487480
	4.096401
	3.604173
	3.030769
	2.384245
	1.674265
	0.927567
	0.154458
	-0.616392
	-1.369201
	-2.094628
	-2.768836
	-3.377331
	-3.899497
	-4.327281
	-4.651984
	-4.863300
	-4.954140
	-4.917417
	-4.756676
	-4.478358
	-4.091484
	-3.602497
	-3.024926
	-2.373911
	-1.666845
	-0.923701
	-0.152207
	0.622511
	1.380804
	2.106888
	2.776927
	3.382220
	3.910527
	4.340584
	4.664658
	4.874052
	4.957165
	4.923340
	4.765489
	4.486514
	4.097045
	3.605461
	3.030125
	2.383923
	1.675876
	0.926923
	0.156391
	-0.617036
	-1.371134
	-2.093984
	-2.768192
	-3.377009
	-3.899497
	-4.327925
	-4.651340
	-4.863300
	-4.954140
	-4.919350
	-4.758931
	-4.478680
	-4.089552
	-3.604430
	-3.025893
	-2.374877
	-1.668134
	-0.920802
	-0.156073
	0.619612
	1.382415
	2.106244
	2.780470
	3.384153
	3.909238
	4.342194
	4.665303
	4.870508
	4.957809
	4.925272
	4.765167
	4.486514
	4.092858
	3.605783
	3.033991
	2.381990
	1.674909
	0.924990
	0.156713
	-0.613815
	-1.371778
	-2.096239
	-2.771091
	-3.374754
	-3.898209
	-4.328569
	-4.654239
	-4.865232
	-4.953173
	-4.916451
	-4.756353
	-4.482868
	-4.092773
	-3.601531
	-3.026215
	-2.374555
	-1.671999
	-0.924345
	-0.149952
	0.622511
	1.379193
	2.103989
	2.775638
	3.385441
	3.911815
	4.338973
	4.659826
	4.870508
	4.961030
	4.926561
	4.763878
	4.482326
	4.094790
	3.610293
	3.032380
	2.381346
	1.671688
	0.927245
	0.160579
	-0.613171
	-1.373389
	-2.098494
	-2.768514
	-3.374754
	-3.898531
	-4.331468
	-4.654239
	-4.861367
	-4.951562
	-4.916773
	-4.761185
	-4.480613
	-4.089230
	-3.601209
	-3.026215
	-2.379065
	-1.671033
	-0.920802
	-0.149952
	0.620900
	1.376294
	2.104311
	2.780148
	3.386086
	3.908594
	4.336074
	4.661759
	4.875340
	4.962319
	4.922695
	4.761946
	4.484581
	4.096723
	3.608683
	3.028514
	2.378447
	1.675876
	0.927567
	0.158968
	-0.615748
	-1.374033
	-2.093340
	-2.767548
	-3.375077
	-3.900786
	-4.329858
	-4.650696
	-4.860723
	-4.953817
	-4.919350
	-4.759253
	-4.479647
	-4.089230
	-3.604752
	-3.029436
	-2.375521
	-1.669100
	-0.922412
	-0.154462
	0.616390
	1.380160
	2.105600
	2.777249
	3.382542
	3.907305
	4.338973
	4.665947
	4.871797
	4.956843
	4.922695
	4.765167
	4.486836
	4.097045
	3.604173
	3.029803
	2.381990
	1.674587
	0.927889
	0.154780
	-0.618325
	-1.371778
	-2.094306
	-2.767548
	-3.375721
	-3.902074
	-4.326959
	-4.651340
	-4.862978
	-4.954140
	-4.919028
	-4.758286
	-4.478680
	-4.089874
	-3.603786
	-3.027825
	-2.375844
	-1.667812
	-0.921768
	-0.154462
	0.619934
	1.379515
	2.106566
	2.778859
	3.382542
	3.906661
	4.339295
	4.665303
	4.873729
	4.958453
	4.922695
	4.766456
	4.486192
	4.095757
	3.604173
	3.032702
	2.383923
	1.673621
	0.924668
	0.157035
	-0.613171
	-1.370490
	-2.097205
	-2.769159
	-3.372822
	-3.898209
	-4.327603
	-4.655206
	-4.863944
	-4.950274
	-4.916128
	-4.758931
	-4.481579
	-4.091807
	-3.599598
	-3.023638
	-2.377776
	-1.671999
	-0.923056
	-0.151563
	0.622189
	1.376294
	2.101412
	2.779826
	3.385763
	3.911171
	4.337362
	4.660793
	4.875662
	4.961997
	4.924950
	4.762268
	4.482648
	4.099623
	3.609971
	3.030769
	2.380057
	1.672332
	0.929178
	0.159935
	-0.616392
	-1.374999
	-2.094628
	-2.768514
	-3.374432
	-3.903041
	-4.332757
	-4.651662
	-4.862655
	-4.950918
	-4.919994
	-4.761508
	-4.479002
	-4.090518
	-3.602175
	-3.028792
	-2.378421
	-1.666523
	-0.919835
	-0.151885
	0.618001
	1.377583
	2.105922
	2.778537
	3.383186
	3.907305
	4.339617
	4.665625
	4.872763
	4.957487
	4.924628
	4.764523
	4.486192
	4.096723
	3.603851
	3.031736
	2.383923
	1.674909
	0.927889
	0.155425
	-0.615748
	-1.369201
	-2.095594
	-2.770447
	-3.376687
	-3.899175
	-4.327281
	-4.651340
	-4.864910
	-4.953817
	-4.917739
	-4.757642
	-4.479647
	-4.094706
	-3.602175
	-3.025570
	-2.376166
	-1.669744
	-0.926278
	-0.152851
	0.623155
	1.379193
	2.101734
	2.775960
	3.384475
	3.912137
	4.338329
	4.658216
	4.873085
	4.961997
	4.925917
	4.764523
	4.482004
	4.098012
	3.609971
	3.031091
	2.381024
	1.675232
	0.930788
	0.160901
	-0.616714
	-1.372422
	-2.092373
	-2.767870
	-3.374754
	-3.901430
	-4.330180
	-4.651018
	-4.863300
	-4.953173
	-4.919028
	-4.758286
	-4.477070
	-4.090518
	-3.603464
	-3.027503
	-2.374877
	-1.668134
	-0.920157
	-0.154784
	0.618645
	1.381126
	2.104956
	2.779826
	3.381576
	3.905694
	4.340906
	4.664014
	4.872441
	4.958775
	4.921407
	4.765167
	4.489091
	4.097045
	3.607072
	3.029481
	2.381668
	1.677487
	0.929178
	0.156713
	-0.617036
	-1.371456
	-2.093340
	-2.766259
	-3.376365
	-3.902396
	-4.329214
	-4.653595
	-4.862333
	-4.953495
	-4.921283
	-4.758286
	-4.479647
	-4.089874
	-3.603464
	-3.029114
	-2.377454
	-1.669744
	-0.923379
	-0.154462
	0.616712
	1.378871
	2.104634
	2.778859
	3.384475
	3.905050
	4.338973
	4.664014
	4.872763
	4.959098
	4.921085
	4.762268
	4.487158
	4.096723
	3.606106
	3.030447
	2.381668
	1.675876
	0.927245
	0.154780
	-0.615426
	-1.371456
	-2.094950
	-2.769159
	-3.376043
	-3.901430
	-4.327925
	-4.652951
	-4.864588
	-4.956072
	-4.919994
	-4.757642
	-4.479647
	-4.091484
	-3.604752
	-3.027825
	-2.375199
	-1.668134
	-0.923701
	-0.156073
	0.618645
	1.380160
	2.106244
	2.777249
	3.380609
	3.907627
	4.338973
	4.664658
	4.872763
	4.957809
	4.923340
	4.763878
	4.486514
	4.098012
	3.604173
	3.029481
	2.382956
	1.675232
	0.927245
	0.155103
	-0.617681
	-1.371778
	-2.094950
	-2.768514
	-3.376687
	-3.902396
	-4.328569
	-4.650696
	-4.862333
	-4.952529
	-4.920316
	-4.761185
	-4.478358
	-4.090518
	-3.602497
	-3.027825
	-2.380031
	-1.668456
	-0.919835
	-0.152851
	0.618967
	1.374039
	2.102701
	2.779826
	3.383509
	3.906339
	4.337362
	4.663692
	4.874052
	4.960064
	4.921085
	4.763556
	4.485225
	4.096723
	3.606750
	3.027870
	2.381990
	1.676520
	0.927889
	0.157035
	-0.617681
	-1.371778
	-2.093984
	-2.768192
	-3.377976
	-3.900464
	-4.328569
	-4.651340
	-4.862011
	-4.955106
	-4.918383
	-4.758608
	-4.479969
	-4.090196
	-3.605719
	-3.027825
	-2.376810
	-1.669422
	-0.921124
	-0.155428
	0.619612
	1.380804
	2.104634
	2.777249
	3.380609
	3.907949
	4.341228
	4.663370
	4.870830
	4.958775
	4.925595
	4.766456
	4.484581
	4.094146
	3.605461
	3.032380
	2.383923
	1.673621
	0.924990
	0.158324
	-0.612204
	-1.370167
	-2.095594
	-2.772702
	-3.375721
	-3.899175
	-4.328569
	-4.652307
	-4.866521
	-4.951885
	-4.916128
	-4.758608
	-4.480613
	-4.095028
	-3.604108
	-3.024926
	-2.378098
	-1.672321
	-0.923701
	-0.152851
	0.623155
	1.379193
	2.100446
	2.777893
	3.384797
	3.908916
	4.336718
	4.657249
	4.873407
	4.962963
	4.924306
	4.762912
	4.483937
	4.098334
	3.609327
	3.029158
	2.378769
	1.674909
	0.929178
	0.158968
	-0.617036
	-1.374355
	-2.094306
	-2.767870
	-3.376687
	-3.902074
	-4.330824
	-4.653273
	-4.862655
	-4.955106
	-4.919994
	-4.758286
	-4.479325
	-4.090518
	-3.606041
	-3.028470
	-2.375844
	-1.670067
	-0.924989
	-0.155428
	0.620256
	1.380482
	2.105278
	2.773705
	3.382542
	3.910204
	4.338007
	4.660793
	4.867609
	4.959742
	4.927850
	4.763234
	4.483292
	4.095757
	3.608038
	3.034313
	2.381346
	1.670400
	0.927567
	0.158646
	-0.613171
	-1.371134
	-2.098494
	-2.767226
	-3.372500
	-3.898853
	-4.330180
	-4.655206
	-4.863300
	-4.951562
	-4.917739
	-4.760863
	-4.482546
	-4.090840
	-3.600887
	-3.026537
	-2.379387
	-1.671355
	-0.921768
	-0.152207
	0.619289
	1.375650
	2.103667
	2.778537
	3.383831
	3.907627
	4.336718
	4.663048
	4.875340
	4.960386
	4.921729
	4.760657
	4.485225
	4.098012
	3.608038
	3.029481
	2.380702
	1.676520
	0.929178
	0.158968
	-0.618003
	-1.372744
	-2.093340
	-2.768836
	-3.375399
	-3.901752
	-4.329214
	-4.651340
	-4.862978
	-4.953817
	-4.920960
	-4.757642
	-4.479002
	-4.090518
	-3.605074
	-3.026859
	-2.375521
	-1.667812
	-0.922090
	-0.155751
	0.620578
	1.379193
	2.103989
	2.776604
	3.379965
	3.909238
	4.341228
	4.663692
	4.871152
	4.960064
	4.925272
	4.767422
	4.484581
	4.093180
	3.608361
	3.032058
	2.382956
	1.673943
	0.924668
	0.159612
	-0.611882
	-1.370812
	-2.095594
	-2.770769
	-3.373466
	-3.896598
	-4.328247
	-4.654239
	-4.864266
	-4.951562
	-4.914196
	-4.758608
	-4.481902
	-4.092773
	-3.601531
	-3.023638
	-2.375521
	-1.673610
	-0.923379
	-0.152207
	0.621544
	1.379838
	2.098191
	2.774349
	3.385119
	3.908272
	4.338329
	4.659504
	4.869542
	4.962963
	4.925595
	4.762912
	4.484259
	4.095757
	3.608683
	3.032702
	2.378124
	1.672977
	0.928533
	0.160257
	-0.612204
	-1.372744
	-2.097527
	-2.765937
	-3.375399
	-3.900786
	-4.330824
	-4.653595
	-4.861689
	-4.952207
	-4.919672
	-4.758931
	-4.478680
	-4.089552
	-3.603142
	-3.029758
	-2.378098
	-1.668134
	-0.922734
	-0.154462
	0.617679
	1.380482
	2.105278
	2.778859
	3.381576
	3.906339
	4.340584
	4.664014
	4.870186
	4.957487
	4.923340
	4.766456
	4.486836
	4.095435
	3.605783
	3.033668
	2.383923
	1.675554
	0.926279
	0.156069
	-0.611882
	-1.368557
	-2.093017
	-2.768836
	-3.376687
	-3.897565
	-4.326637
	-4.652629
	-4.865232
	-4.954784
	-4.916451
	-4.757642
	-4.479969
	-4.092451
	-3.602497
	-3.026215
	-2.375199
	-1.671677
	-0.926600
	-0.154784
	0.620578
	1.379193
	2.103345
	2.773383
	3.383831
	3.911171
	4.339617
	4.659826
	4.868897
	4.961030
	4.926239
	4.764523
	4.482004
	4.094146
	3.607072
	3.033024
	2.383279
	1.672977
	0.925312
	0.159290
	-0.613493
	-1.369845
	-2.096561
	-2.771091
	-3.373466
	-3.896920
	-4.327603
	-4.652307
	-4.866199
	-4.953817
	-4.917739
	-4.757964
	-4.479002
	-4.093417
	-3.604752
	-3.024282
	-2.376488
	-1.669422
	-0.923379
	-0.158005
	0.617357
	1.378871
	2.103989
	2.779504
	3.382542
	3.905694
	4.340262
	4.664014
	4.875340
	4.960708
	4.921085
	4.763234
	4.485547
	4.098012
	3.610293
	3.029481
	2.381346
	1.677164
	0.929822
	0.159935
	-0.615104
	-1.374999
	-2.094950
	-2.767548
	-3.374110
	-3.898209
	-4.331468
	-4.654239
	-4.861689
	-4.952851
	-4.917417
	-4.761185
	-4.483190
	-4.090840
	-3.602819
	-3.025248
	-2.376488
	-1.673932
	-0.924345
	-0.152851
	0.619289
	1.378871
	2.101090
	2.773383
	3.382220
	3.907949
	4.340906
	4.663370
	4.868253
	4.959420
	4.923017
	4.765167
	4.486836
	4.097368
	3.606106
	3.029803
	2.381990
	1.677487
	0.930144
	0.159612
	-0.613171
	-1.372100
	-2.094306
	-2.766259
	-3.374432
	-3.900142
	-4.330824
	-4.653917
	-4.861367
	-4.951240
	-4.917095
	-4.759253
	-4.483512
	-4.091162
	-3.601209
	-3.024604
	-2.375199
	-1.673288
	-0.925633
	-0.153496
	0.621222
	1.378871
	2.103023
	2.773383
	3.381254
	3.909560
	4.340906
	4.663370
	4.868575
	4.958775
	4.924950
	4.766133
	4.487158
	4.094146
	3.605139
	3.032380
	2.383279
	1.677164
	0.928533
	0.155747
	-0.613493
	-1.368879
	-2.094950
	-2.768192
	-3.377654
	-3.899175
	-4.327281
	-4.652629
	-4.862655
	-4.955750
	-4.919028
	-4.756998
	-4.479969
	-4.091162
	-3.606363
	-3.031047
	-2.377776
	-1.670389
	-0.922734
	-0.155106
	0.616068
	1.379193
	2.105600
	2.777571
	3.383509
	3.905050
	4.334463
	4.663692
	4.872119
	4.959098
	4.922373
	4.760657
	4.485870
	4.099300
	3.609005
	3.031091
	2.380702
	1.674265
	0.930466
	0.160257
	-0.614459
	-1.371456
	-2.097849
	-2.767548
	-3.371533
	-3.899497
	-4.329214
	-4.655528
	-4.865555
	-4.950274
	-4.917417
	-4.758608
	-4.481257
	-4.093739
	-3.602175
	-3.024926
	-2.377776
	-1.672321
	-0.925956
	-0.156395
	0.620900
	1.378871
	2.103023
	2.775638
	3.380609
	3.907949
	4.340906
	4.662726
	4.870186
	4.957809
	4.921407
	4.766133
	4.487480
	4.095757
	3.607072
	3.031091
	2.382312
	1.678131
	0.928533
	0.157358
	-0.615104
	-1.371778
	-2.092373
	-2.766582
	-3.375399
	-3.900464
	-4.329536
	-4.652629
	-4.862011
	-4.955428
	-4.920960
	-4.760219
	-4.480291
	-4.088263
	-3.601853
	-3.029436
	-2.378421
	-1.670389
	-0.923379
	-0.152207
	0.616390
	1.373717
	2.103989
	2.776604
	3.383831
	3.906339
	4.335107
	4.663048
	4.873407
	4.961353
	4.923340
	4.759691
	4.483615
	4.098978
	3.608683
	3.033024
	2.381668
	1.672332
	0.931110
	0.160901
	-0.613493
	-1.371778
	-2.098494
	-2.768192
	-3.372177
	-3.898531
	-4.329858
	-4.655850
	-4.864910
	-4.950596
	-4.918706
	-4.760219
	-4.483512
	-4.094706
	-3.601531
	-3.026215
	-2.378098
	-1.672644
	-0.926278
	-0.154784
	0.621544
	1.377905
	2.100768
	2.773705
	3.382220
	3.910204
	4.340584
	4.661437
	4.870508
	4.957809
	4.923984
	4.766778
	4.485870
	4.095757
	3.605461
	3.030125
	2.383279
	1.676198
	0.927567
	0.156713
	-0.615748
	-1.371134
	-2.092695
	-2.767548
	-3.377331
	-3.901430
	-4.329858
	-4.651662
	-4.862333
	-4.953495
	-4.919350
	-4.760863
	-4.481579
	-4.091484
	-3.604430
	-3.029436
	-2.381320
	-1.671677
	-0.923379
	-0.153173
	0.617679
	1.375650
	2.099479
	2.775638
	3.385763
	3.908594
	4.336718
	4.659182
	4.869542
	4.961030
	4.926883
	4.765489
	4.483937
	4.094146
	3.605461
	3.033346
	2.383601
	1.673621
	0.925956
	0.156391
	-0.613171
	-1.368557
	-2.094628
	-2.769481
	-3.377654
	-3.901752
	-4.327925
	-4.651662
	-4.864266
	-4.954784
	-4.919350
	-4.759575
	-4.479002
	-4.092129
	-3.605074
	-3.030724
	-2.381642
	-1.671033
	-0.923379
	-0.155106
	0.617679
	1.374683
	2.103345
	2.779504
	3.384475
	3.905694
	4.335752
	4.659826
	4.872763
	4.964252
	4.922695
	4.760013
	4.485870
	4.097690
	3.610616
	3.033346
	2.378769
	1.673943
	0.929500
	0.160901
	-0.611238
	-1.372422
	-2.096239
	-2.765937
	-3.373144
	-3.897565
	-4.327925
	-4.657461
	-4.864266
	-4.951885
	-4.917095
	-4.756998
	-4.482546
	-4.093417
	-3.603142
	-3.027181
	-2.376166
	-1.671033
	-0.926278
	-0.155106
	0.618001
	1.380160
	2.104634
	2.774027
	3.380609
	3.908916
	4.338973
	4.663692
	4.871797
	4.956198
	4.923340
	4.765167
	4.486836
	4.099623
	3.605461
	3.030125
	2.383601
	1.675876
	0.928533
	0.158002
	-0.617681
	-1.372100
	-2.093662
	-2.768836
	-3.373466
	-3.900464
	-4.331146
	-4.651662
	-4.862333
	-4.952207
	-4.919672
	-4.762796
	-4.480613
	-4.091807
	-3.602497
	-3.026537
	-2.380998
	-1.672321
	-0.922412
	-0.154140
	0.619934
	1.375328
	2.098513
	2.777249
	3.384153
	3.909560
	4.338973
	4.659504
	4.870830
	4.962319
	4.925272
	4.764523
	4.482970
	4.092858
	3.608683
	3.032702
	2.382312
	1.674265
	0.924668
	0.157680
	-0.612204
	-1.370812
	-2.094950
	-2.771091
	-3.377009
	-3.898209
	-4.327603
	-4.651340
	-4.865555
	-4.955750
	-4.918706
	-4.759575
	-4.479647
	-4.092451
	-3.604752
	-3.030402
	-2.379709
	-1.667812
	-0.923701
	-0.154140
	0.616712
	1.372429
	2.101734
	2.777893
	3.382220
	3.906983
	4.333497
	4.661115
	4.875018
	4.960386
	4.923662
	4.760335
	4.482648
	4.099623
	3.609005
	3.031736
	2.380057
	1.672332
	0.929178
	0.160257
	-0.613171
	-1.371778
	-2.098816
	-2.768836
	-3.373144
	-3.899497
	-4.331146
	-4.656494
	-4.864588
	-4.951562
	-4.919028
	-4.762152
	-4.484479
	-4.094384
	-3.603464
	-3.027825
	-2.377776
	-1.673932
	-0.927888
	-0.154784
	0.620578
	1.377905
	2.100446
	2.772417
	3.380931
	3.909882
	4.339939
	4.662403
	4.869542
	4.958775
	4.926561
	4.766778
	4.485870
	4.093502
	3.604495
	3.031736
	2.383923
	1.676842
	0.926923
	0.156391
	-0.613815
	-1.368557
	-2.093017
	-2.769481
	-3.377976
	-3.900142
	-4.328247
	-4.651340
	-4.863622
	-4.955428
	-4.919028
	-4.758931
	-4.479325
	-4.091484
	-3.606041
	-3.029758
	-2.377776
	-1.670389
	-0.924023
	-0.157683
	0.616390
	1.378549
	2.103023
	2.776927
	3.382220
	3.904406
	4.337684
	4.664014
	4.872763
	4.959742
	4.921729
	4.761946
	4.487802
	4.098656
	3.609005
	3.028836
	2.379413
	1.676198
	0.930788
	0.160579
	-0.613815
	-1.371778
	-2.095917
	-2.766582
	-3.372500
	-3.898853
	-4.332435
	-4.654884
	-4.862655
	-4.950918
	-4.916773
	-4.759575
	-4.482224
	-4.094061
	-3.602819
	-3.026537
	-2.377454
	-1.673288
	-0.927888
	-0.154784
	0.620256
	1.378871
	2.102379
	2.774027
	3.379643
	3.906017
	4.338651
	4.662726
	4.870186
	4.958453
	4.922051
	4.765811
	4.490057
	4.098012
	3.607394
	3.030769
	2.382956
	1.677164
	0.929178
	0.156713
	-0.616392
	-1.370812
	-2.093662
	-2.765937
	-3.374432
	-3.902074
	-4.327603
	-4.652307
	-4.862333
	-4.952851
	-4.920638
	-4.759253
	-4.479647
	-4.091807
	-3.603464
	-3.031369
	-2.380031
	-1.669422
	-0.922734
	-0.155751
	0.617357
	1.375006
	2.103345
	2.777249
	3.382864
	3.905050
	4.336396
	4.663048
	4.874052
	4.960064
	4.922051
	4.762590
	4.486514
	4.099300
	3.607072
	3.028836
	2.382956
	1.677164
	0.928856
	0.159290
	-0.616392
	-1.372100
	-2.093340
	-2.766582
	-3.375721
	-3.899819
	-4.329858
	-4.651340
	-4.862655
	-4.952851
	-4.921605
	-4.761508
	-4.480935
	-4.090840
	-3.602819
	-3.029758
	-2.379387
	-1.670067
	-0.922090
	-0.156395
	0.616068
	1.376616
	2.102701
	2.775638
	3.380931
	3.903762
	4.337362
	4.663692
	4.872763
	4.959742
	4.922051
	4.765167
	4.487802
	4.098978
	3.608361
	3.030125
	2.381024
	1.677164
	0.930466
	0.158324
	-0.615748
	-1.372744
	-2.094306
	-2.766259
	-3.373466
	-3.899819
	-4.331146
	-4.654239
	-4.862011
	-4.951885
	-4.918061
	-4.761508
	-4.481579
	-4.091162
	-3.602175
	-3.026859
	-2.380998
	-1.674898
	-0.923701
	-0.154462
	0.619612
	1.375328
	2.099157
	2.776282
	3.382542
	3.907627
	4.335752
	4.657249
	4.870186
	4.962641
	4.925272
	4.763234
	4.484259
	4.095757
	3.611260
	3.033991
	2.381990
	1.673621
	0.928533
	0.161223
	-0.610594
	-1.370812
	-2.097205
	-2.765937
	-3.372822
	-3.897565
	-4.329214
	-4.656494
	-4.862655
	-4.952207
	-4.917739
	-4.759897
	-4.482868
	-4.091162
	-3.601853
	-3.028147
	-2.380031
	-1.674576
	-0.924345
	-0.152207
	0.618967
	1.374039
	2.099802
	2.776927
	3.383509
	3.910204
	4.335429
	4.659826
	4.874052
	4.961030
	4.924306
	4.761946
	4.485225
	4.099623
	3.610616
	3.031091
	2.381346
	1.676842
	0.929500
	0.160901
	-0.614459
	-1.372100
	-2.092051
	-2.765937
	-3.373466
	-3.900464
	-4.329214
	-4.651340
	-4.862655
	-4.953495
	-4.920960
	-4.760541
	-4.480291
	-4.090518
	-3.602819
	-3.030402
	-2.379387
	-1.670389
	-0.922734
	-0.156717
	0.615746
	1.377583
	2.102379
	2.777249
	3.380609
	3.905050
	4.338973
	4.662726
	4.871474
	4.958453
	4.921085
	4.765811
	4.488447
	4.097690
	3.605461
	3.029481
	2.384245
	1.677164
	0.929178
	0.158646
	-0.615426
	-1.370490
	-2.092695
	-2.766904
	-3.377331
	-3.901430
	-4.328891
	-4.652629
	-4.862655
	-4.954784
	-4.921283
	-4.759575
	-4.481257
	-4.093095
	-3.607007
	-3.031047
	-2.377132
	-1.671355
	-0.927244
	-0.158972
	0.615102
	1.376294
	2.102056
	2.775316
	3.378676
	3.906017
	4.338329
	4.664014
	4.872119
	4.958131
	4.921085
	4.763878
	4.487480
	4.098978
	3.607072
	3.029481
	2.383601
	1.677487
	0.930144
	0.158968
	-0.617358
	-1.372100
	-2.092373
	-2.766904
	-3.374432
	-3.900142
	-4.330180
	-4.651984
	-4.860078
	-4.951885
	-4.919994
	-4.762796
	-4.480291
	-4.090840
	-3.603786
	-3.029758
	-2.381320
	-1.673288
	-0.924345
	-0.152529
	0.618323
	1.373717
	2.099157
	2.774027
	3.383509
	3.908916
	4.335752
	4.657893
	4.871152
	4.961353
	4.926239
	4.764201
	4.482326
	4.095757
	3.610616
	3.033024
	2.384567
	1.674265
	0.925312
	0.162189
	-0.610594
	-1.368235
	-2.093662
	-2.771091
	-3.375077
	-3.896920
	-4.329536
	-4.653273
	-4.865232
	-4.955428
	-4.917095
	-4.759253
	-4.482546
	-4.094061
	-3.607007
	-3.027825
	-2.377132
	-1.673932
	-0.928855
	-0.156073
	0.617679
	1.377905
	2.102701
	2.771772
	3.378676
	3.908272
	4.337684
	4.663370
	4.871152
	4.956198
	4.924628
	4.766133
	4.486514
	4.095435
	3.605461
	3.031091
	2.385534
	1.677487
	0.927567
	0.158002
	-0.612849
	-1.368557
	-2.092373
	-2.767870
	-3.377009
	-3.896920
	-4.327281
	-4.651340
	-4.863300
	-4.955428
	-4.919350
	-4.760219
	-4.480291
	-4.093739
	-3.608618
	-3.028792
	-2.377776
	-1.670711
	-0.924667
	-0.158650
	0.617357
	1.378549
	2.102379
	2.775638
	3.379965
	3.905372
	4.338651
	4.663370
	4.870830
	4.958775
	4.923662
	4.764845
	4.489091
	4.099623
	3.607716
	3.031736
	2.383601
	1.677809
	0.931433
	0.159612
	-0.615104
	-1.367590
	-2.092373
	-2.765615
	-3.373788
	-3.899819
	-4.328569
	-4.651018
	-4.861367
	-4.951885
	-4.920316
	-4.760541
	-4.479325
	-4.090518
	-3.601853
	-3.028147
	-2.381642
	-1.672321
	-0.923056
	-0.154784
	0.618001
	1.374683
	2.098513
	2.776604
	3.384153
	3.907949
	4.335429
	4.660148
	4.872763
	4.962963
	4.924628
	4.761946
	4.485547
	4.100267
	3.609971
	3.033991
	2.380379
	1.674909
	0.932399
	0.161545
	-0.612849
	-1.371134
	-2.094306
	-2.764971
	-3.371533
	-3.900786
	-4.328247
	-4.651662
	-4.862333
	-4.951562
	-4.921283
	-4.759897
	-4.479969
	-4.090840
	-3.604752
	-3.030724
	-2.378098
	-1.669100
	-0.923379
	-0.157361
	0.617679
	1.377905
	2.103023
	2.777249
	3.379643
	3.904728
	4.338007
	4.662726
	4.873085
	4.960386
	4.922373
	4.766456
	4.489735
	4.098012
	3.607394
	3.030769
	2.383279
	1.678131
	0.930788
	0.158002
	-0.614781
	-1.368557
	-2.093340
	-2.765615
	-3.375077
	-3.901430
	-4.327925
	-4.652629
	-4.861045
	-4.952529
	-4.921283
	-4.759575
	-4.479969
	-4.091807
	-3.603464
	-3.031691
	-2.381964
	-1.671033
	-0.924023
	-0.154784
	0.617035
	1.373717
	2.102701
	2.777571
	3.380931
	3.904728
	4.335429
	4.661759
	4.873729
	4.961030
	4.922051
	4.762912
	4.486836
	4.099945
	3.609971
	3.029158
	2.381668
	1.677164
	0.929500
	0.161867
	-0.613171
	-1.371134
	-2.092051
	-2.765293
	-3.373466
	-3.900142
	-4.328891
	-4.651662
	-4.859756
	-4.951562
	-4.919350
	-4.760219
	-4.480291
	-4.090840
	-3.603786
	-3.030080
	-2.380031
	-1.671677
	-0.923379
	-0.154140
	0.616390
	1.373717
	2.103023
	2.775960
	3.382864
	3.905372
	4.334785
	4.662403
	4.873407
	4.961030
	4.923340
	4.761946
	4.486836
	4.100589
	3.610938
	3.032380
	2.379735
	1.675554
	0.930466
	0.161545
	-0.612849
	-1.370167
	-2.092373
	-2.764971
	-3.371855
	-3.899819
	-4.331791
	-4.652629
	-4.862333
	-4.951240
	-4.920638
	-4.762796
	-4.480291
	-4.091807
	-3.602175
	-3.029114
	-2.382930
	-1.674254
	-0.925311
	-0.154462
	0.618323
	1.374361
	2.098191
	2.777249
	3.384153
	3.909882
	4.336718
	4.658216
	4.871474
	4.961997
	4.924628
	4.762590
	4.482970
	4.097368
	3.613193
	3.035923
	2.382956
	1.674909
	0.927889
	0.161867
	-0.609627
	-1.369845
	-2.096561
	-2.768192
	-3.372177
	-3.896598
	-4.328247
	-4.655528
	-4.866199
	-4.953173
	-4.918061
	-4.758286
	-4.481902
	-4.094706
	-3.601209
	-3.025893
	-2.375844
	-1.673288
	-0.927888
	-0.156395
	0.619289
	1.376938
	2.102056
	2.773061
	3.382542
	3.910204
	4.339295
	4.662726
	4.869864
	4.957165
	4.925595
	4.767100
	4.487158
	4.098012
	3.606428
	3.033024
	2.386822
	1.678453
	0.928533
	0.157680
	-0.612527
	-1.367590
	-2.093662
	-2.768514
	-3.374432
	-3.898209
	-4.325992
	-4.651340
	-4.862978
	-4.953817
	-4.919028
	-4.758286
	-4.480291
	-4.092451
	-3.605719
	-3.030080
	-2.377132
	-1.670389
	-0.925311
	-0.157039
	0.615746
	1.376938
	2.102379
	2.775316
	3.379321
	3.905372
	4.337040
	4.664014
	4.873407
	4.959420
	4.923017
	4.764845
	4.487480
	4.099300
	3.608038
	3.030447
	2.381990
	1.677487
	0.932721
	0.161867
	-0.614459
	-1.371778
	-2.093662
	-2.766259
	-3.372177
	-3.898209
	-4.330180
	-4.649407
	-4.861367
	-4.950918
	-4.919028
	-4.763440
	-4.481257
	-4.092129
	-3.603464
	-3.029436
	-2.383575
	-1.672321
	-0.923701
	-0.154140
	0.620256
	1.372751
	2.099157
	2.775638
	3.382864
	3.908272
	4.335752
	4.657571
	4.873085
	4.961675
	4.926239
	4.765167
	4.483615
	4.098978
	3.612226
	3.033024
	2.382634
	1.674265
	0.928211
	0.163156
	-0.610272
	-1.370167
	-2.095594
	-2.767548
	-3.373144
	-3.895954
	-4.328569
	-4.655206
	-4.862655
	-4.951562
	-4.915484
	-4.757642
	-4.482868
	-4.093095
	-3.604430
	-3.027825
	-2.378098
	-1.676831
	-0.927566
	-0.156073
	0.618645
	1.377583
	2.097869
	2.772739
	3.383186
	3.907305
	4.338007
	4.659826
	4.868575
	4.962319
	4.925595
	4.764845
	4.485547
	4.095113
	3.610616
	3.036568
	2.383279
	1.674909
	0.929500
	0.161545
	-0.609305
	-1.367913
	-2.096239
	-2.767226
	-3.372177
	-3.897242
	-4.327281
	-4.655850
	-4.864910
	-4.950596
	-4.917739
	-4.758286
	-4.482546
	-4.093417
	-3.602175
	-3.027825
	-2.379387
	-1.674576
	-0.929177
	-0.155428
	0.618967
	1.376938
	2.099479
	2.771128
	3.381576
	3.910204
	4.336396
	4.659826
	4.870186
	4.958131
	4.926561
	4.765489
	4.484903
	4.096079
	3.609327
	3.033991
	2.386178
	1.675232
	0.927567
	0.162834
	-0.610916
	-1.367590
	-2.094628
	-2.768836
	-3.371211
	-3.896598
	-4.326637
	-4.654239
	-4.865877
	-4.952207
	-4.918061
	-4.759897
	-4.483190
	-4.093739
	-3.603464
	-3.027181
	-2.380353
	-1.674254
	-0.926600
	-0.155428
	0.619934
	1.376616
	2.099479
	2.774349
	3.382220
	3.909238
	4.338007
	4.658216
	4.870186
	4.961353
	4.924628
	4.765167
	4.483937
	4.096723
	3.611260
	3.033024
	2.381024
	1.674909
	0.928856
	0.162512
	-0.610272
	-1.371456
	-2.096239
	-2.766259
	-3.371533
	-3.894988
	-4.327925
	-4.655206
	-4.861689
	-4.952851
	-4.917417
	-4.759575
	-4.484479
	-4.091484
	-3.603464
	-3.028470
	-2.379709
	-1.675543
	-0.926922
	-0.154462
	0.617357
	1.374683
	2.098513
	2.773705
	3.385441
	3.907949
	4.334785
	4.658860
	4.871152
	4.961675
	4.925917
	4.763234
	4.482326
	4.098334
	3.609649
	3.034635
	2.384245
	1.672332
	0.931433
	0.162512
	-0.610272
	-1.370167
	-2.095594
	-2.767548
	-3.370889
	-3.894988
	-4.329536
	-4.652951
	-4.862011
	-4.951240
	-4.916128
	-4.761185
	-4.482224
	-4.091162
	-3.603464
	-3.026537
	-2.380675
	-1.677153
	-0.926278
	-0.155106
	0.618323
	1.375972
	2.096258
	2.774027
	3.384475
	3.907305
	4.336074
	4.660471
	4.872119
	4.962641
	4.924306
	4.761623
	4.487480
	4.099300
	3.610938
	3.033991
	2.381346
	1.676198
	0.933043
	0.161867
	-0.611560
	-1.370167
	-2.093017
	-2.764649
	-3.371533
	-3.898853
	-4.328247
	-4.650696
	-4.860723
	-4.949952
	-4.918706
	-4.761508
	-4.479002
	-4.091484
	-3.603464
	-3.030080
	-2.383252
	-1.672644
	-0.924023
	-0.154140
	0.618323
	1.373395
	2.100768
	2.778537
	3.383186
	3.907305
	4.336396
	4.659826
	4.874052
	4.962319
	4.923340
	4.763878
	4.486192
	4.100589
	3.612870
	3.032058
	2.381990
	1.679097
	0.931755
	0.163156
	-0.611560
	-1.371134
	-2.091407
	-2.764005
	-3.372500
	-3.899175
	-4.329858
	-4.651662
	-4.860078
	-4.951240
	-4.919350
	-4.761508
	-4.481257
	-4.091484
	-3.603786
	-3.031047
	-2.380675
	-1.672644
	-0.924667
	-0.153496
	0.615102
	1.373073
	2.102701
	2.775638
	3.382542
	3.906017
	4.334141
	4.662081
	4.873085
	4.960708
	4.923340
	4.763556
	4.487802
	4.100911
	3.610616
	3.031736
	2.383601
	1.679097
	0.932077
	0.163156
	-0.614137
	-1.368235
	-2.089796
	-2.764971
	-3.371211
	-3.898853
	-4.327603
	-4.649407
	-4.862011
	-4.953173
	-4.920316
	-4.759575
	-4.478036
	-4.091484
	-3.605396
	-3.030080
	-2.380998
	-1.671355
	-0.923379
	-0.157361
	0.615424
	1.376938
	2.101412
	2.775638
	3.380931
	3.904084
	4.338007
	4.663370
	4.872763
	4.959098
	4.920762
	4.765167
	4.491024
	4.099300
	3.608683
	3.030769
	2.383923
	1.680708
	0.931755
	0.160257
	-0.612527
	-1.368879
	-2.089796
	-2.763038
	-3.374432
	-3.897887
	-4.326637
	-4.651018
	-4.860723
	-4.954462
	-4.919672
	-4.756998
	-4.479647
	-4.091484
	-3.606685
	-3.032335
	-2.378743
	-1.671999
	-0.924989
	-0.156073
	0.613813
	1.375650
	2.102379
	2.775960
	3.383186
	3.905372
	4.335107
	4.662403
	4.874374
	4.963285
	4.923984
	4.761946
	4.487802
	4.100267
	3.612548
	3.034313
	2.380702
	1.678453
	0.932721
	0.163156
	-0.611560
	-1.370812
	-2.091407
	-2.764005
	-3.370567
	-3.898209
	-4.328891
	-4.652307
	-4.861689
	-4.951562
	-4.918383
	-4.762474
	-4.480613
	-4.090840
	-3.605396
	-3.030080
	-2.382286
	-1.672966
	-0.924345
	-0.154462
	0.614780
	1.374039
	2.100446
	2.775638
	3.382864
	3.904406
	4.333819
	4.662403
	4.872119
	4.961353
	4.923662
	4.761301
	4.489413
	4.100589
	3.610293
	3.033024
	2.382634
	1.679741
	0.934976
	0.162512
	-0.610916
	-1.370812
	-2.093017
	-2.764005
	-3.371855
	-3.899497
	-4.328569
	-4.652629
	-4.861689
	-4.951240
	-4.921605
	-4.761830
	-4.479969
	-4.091484
	-3.602819
	-3.031691
	-2.382930
	-1.674254
	-0.926278
	-0.155428
	0.615746
	1.371462
	2.100446
	2.775316
	3.382220
	3.908594
	4.333497
	4.659826
	4.872763
	4.960708
	4.925272
	4.762268
	4.484581
	4.100911
	3.611260
	3.034635
	2.382634
	1.677164
	0.932399
	0.163800
	-0.611238
	-1.369523
	-2.094628
	-2.764971
	-3.369923
	-3.895954
	-4.329214
	-4.652307
	-4.861045
	-4.951562
	-4.917739
	-4.762474
	-4.481902
	-4.091162
	-3.603464
	-3.027503
	-2.382930
	-1.673610
	-0.923701
	-0.155751
	0.616390
	1.372429
	2.099479
	2.776927
	3.384153
	3.907627
	4.335429
	4.660148
	4.871797
	4.962641
	4.924306
	4.763878
	4.484259
	4.099945
	3.612226
	3.033991
	2.382634
	1.676198
	0.930788
	0.162834
	-0.608983
	-1.369523
	-2.094306
	-2.767226
	-3.371211
	-3.894665
	-4.327925
	-4.653273
	-4.862655
	-4.951562
	-4.917739
	-4.761830
	-4.482546
	-4.092451
	-3.604752
	-3.028147
	-2.382608
	-1.677798
	-0.926922
	-0.155106
	0.616712
	1.373073
	2.096580
	2.773061
	3.382220
	3.907627
	4.334463
	4.658538
	4.870830
	4.961353
	4.926239
	4.762268
	4.483615
	4.098656
	3.610616
	3.035601
	2.384567
	1.673621
	0.929822
	0.163156
	-0.608983
	-1.368235
	-2.095594
	-2.767548
	-3.371855
	-3.894343
	-4.326637
	-4.652629
	-4.863300
	-4.950918
	-4.916773
	-4.760541
	-4.484479
	-4.095350
	-3.604108
	-3.027825
	-2.379387
	-1.675221
	-0.927244
	-0.155106
	0.618967
	1.375972
	2.096580
	2.772095
	3.381576
	3.908272
	4.336074
	4.656927
	4.870830
	4.961675
	4.924950
	4.764845
	4.483937
	4.097045
	3.611582
	3.036568
	2.385211
	1.675554
	0.929822
	0.162834
	-0.609305
	-1.367913
	-2.095272
	-2.766904
	-3.371533
	-3.895632
	-4.325992
	-4.654561
	-4.864910
	-4.952207
	-4.916128
	-4.757964
	-4.481579
	-4.094706
	-3.604752
	-3.028147
	-2.379065
	-1.674254
	-0.930788
	-0.158328
	0.618001
	1.376294
	2.101412
	2.771772
	3.377710
	3.908272
	4.338329
	4.662081
	4.869864
	4.956843
	4.925595
	4.767744
	4.487802
	4.097690
	3.607072
	3.034635
	2.386822
	1.678775
	0.929822
	0.159612
	-0.612527
	-1.366624
	-2.089152
	-2.766904
	-3.375077
	-3.896598
	-4.325026
	-4.649407
	-4.862655
	-4.954140
	-4.918061
	-4.758931
	-4.479002
	-4.092451
	-3.607329
	-3.030080
	-2.378098
	-1.673288
	-0.925956
	-0.159616
	0.616068
	1.376616
	2.100124
	2.773383
	3.378676
	3.906339
	4.339295
	4.662726
	4.868253
	4.957165
	4.924950
	4.766133
	4.487802
	4.097045
	3.606750
	3.035279
	2.385534
	1.678131
	0.929178
	0.158968
	-0.609305
	-1.366624
	-2.093017
	-2.769159
	-3.373466
	-3.896276
	-4.326959
	-4.651984
	-4.865555
	-4.952529
	-4.917739
	-4.759253
	-4.482546
	-4.094706
	-3.603786
	-3.027503
	-2.381642
	-1.677153
	-0.926600
	-0.155751
	0.617357
	1.373717
	2.097224
	2.775316
	3.382864
	3.907305
	4.335429
	4.659826
	4.871797
	4.962319
	4.923984
	4.760979
	4.487480
	4.100589
	3.610938
	3.033668
	2.381668
	1.678453
	0.934010
	0.161867
	-0.613171
	-1.367913
	-2.092051
	-2.765293
	-3.371533
	-3.899819
	-4.327281
	-4.649407
	-4.862333
	-4.954140
	-4.919672
	-4.758286
	-4.478680
	-4.092451
	-3.606363
	-3.031369
	-2.380353
	-1.671033
	-0.923701
	-0.160260
	0.613169
	1.374683
	2.100446
	2.775638
	3.380609
	3.902151
	4.336396
	4.663048
	4.872763
	4.960386
	4.922051
	4.762912
	4.489735
	4.100911
	3.609327
	3.031736
	2.384567
	1.680064
	0.934010
	0.162834
	-0.612527
	-1.366624
	-2.090440
	-2.764649
	-3.372822
	-3.898209
	-4.324704
	-4.648763
	-4.861367
	-4.954140
	-4.919350
	-4.760219
	-4.480613
	-4.093739
	-3.607973
	-3.030080
	-2.379065
	-1.672644
	-0.926922
	-0.160260
	0.617035
	1.377583
	2.101090
	2.771772
	3.379965
	3.907305
	4.337684
	4.661115
	4.867609
	4.960386
	4.927205
	4.766778
	4.485547
	4.095435
	3.610616
	3.037212
	2.386178
	1.675554
	0.930144
	0.163800
	-0.608339
	-1.366302
	-2.094306
	-2.768192
	-3.370245
	-3.895632
	-4.326637
	-4.653595
	-4.862655
	-4.950596
	-4.916451
	-4.760541
	-4.483512
	-4.094706
	-3.604752
	-3.029114
	-2.381320
	-1.676509
	-0.925956
	-0.155106
	0.618967
	1.374683
	2.097869
	2.775638
	3.381898
	3.906339
	4.334463
	4.658538
	4.873085
	4.961997
	4.924628
	4.762590
	4.486836
	4.099300
	3.611260
	3.033991
	2.380702
	1.678131
	0.934010
	0.162512
	-0.609950
	-1.369845
	-2.091729
	-2.763682
	-3.371211
	-3.897565
	-4.328891
	-4.651340
	-4.860078
	-4.951240
	-4.919028
	-4.761508
	-4.481257
	-4.090840
	-3.603464
	-3.031047
	-2.382286
	-1.674254
	-0.924667
	-0.154462
	0.616068
	1.372751
	2.101734
	2.775638
	3.383831
	3.906661
	4.333819
	4.662403
	4.874052
	4.961675
	4.924950
	4.762590
	4.488125
	4.101555
	3.611904
	3.033991
	2.383279
	1.676842
	0.933687
	0.164766
	-0.609305
	-1.368879
	-2.092695
	-2.764327
	-3.369600
	-3.896276
	-4.328569
	-4.651662
	-4.861045
	-4.949952
	-4.918061
	-4.761508
	-4.482224
	-4.092129
	-3.602175
	-3.027503
	-2.381320
	-1.674576
	-0.924667
	-0.155751
	0.618323
	1.373717
	2.097224
	2.776604
	3.383509
	3.907627
	4.335429
	4.658216
	4.872119
	4.961353
	4.924306
	4.763556
	4.486192
	4.100589
	3.613193
	3.033991
	2.383279
	1.680064
	0.934332
	0.164444
	-0.610272
	-1.370167
	-2.089796
	-2.762716
	-3.370567
	-3.897565
	-4.328247
	-4.649730
	-4.858790
	-4.950274
	-4.918706
	-4.761508
	-4.480935
	-4.089874
	-3.604430
	-3.030724
	-2.381642
	-1.673288
	-0.924023
	-0.155106
	0.615102
	1.373073
	2.100124
	2.775960
	3.384153
	3.905694
	4.333497
	4.661437
	4.872119
	4.963608
	4.924950
	4.762590
	4.488125
	4.100911
	3.613193
	3.036568
	2.382634
	1.676198
	0.934976
	0.165089
	-0.607373
	-1.365980
	-2.094950
	-2.764649
	-3.369600
	-3.894665
	-4.325026
	-4.653917
	-4.861689
	-4.949308
	-4.918061
	-4.758608
	-4.481257
	-4.096638
	-3.604752
	-3.028470
	-2.379387
	-1.671677
	-0.928533
	-0.158650
	0.618645
	1.375972
	2.100446
	2.773705
	3.377388
	3.906017
	4.339939
	4.662726
	4.873407
	4.959742
	4.921729
	4.766133
	4.491024
	4.099945
	3.610293
	3.032380
	2.384889
	1.680708
	0.933043
	0.162189
	-0.611560
	-1.365980
	-2.090118
	-2.764005
	-3.371211
	-3.898853
	-4.327603
	-4.650696
	-4.861367
	-4.950918
	-4.920316
	-4.760541
	-4.479002
	-4.091807
	-3.603786
	-3.032657
	-2.384219
	-1.674576
	-0.925633
	-0.156073
	0.617035
	1.372429
	2.097869
	2.774994
	3.381254
	3.907627
	4.333819
	4.656927
	4.871152
	4.960064
	4.925917
	4.765811
	4.484259
	4.098978
	3.612548
	3.035601
	2.385856
	1.674587
	0.930788
	0.165411
	-0.608661
	-1.367590
	-2.093017
	-2.766582
	-3.370245
	-3.893699
	-4.326959
	-4.652951
	-4.865877
	-4.952851
	-4.916451
	-4.759575
	-4.483190
	-4.093417
	-3.605074
	-3.027825
	-2.379387
	-1.677475
	-0.928533
	-0.157683
	0.616712
	1.376938
	2.097869
	2.770484
	3.381576
	3.906339
	4.336718
	4.660793
	4.867287
	4.959098
	4.926883
	4.766133
	4.487480
	4.097045
	3.609327
	3.036568
	2.387466
	1.678775
	0.930788
	0.160901
	-0.608983
	-1.364691
	-2.091729
	-2.767226
	-3.372500
	-3.895954
	-4.324060
	-4.650374
	-4.863622
	-4.954784
	-4.919028
	-4.757964
	-4.479647
	-4.093739
	-3.607651
	-3.032013
	-2.380675
	-1.672966
	-0.926922
	-0.160260
	0.614458
	1.373073
	2.099157
	2.774349
	3.376744
	3.904406
	4.338329
	4.660793
	4.871152
	4.958453
	4.920762
	4.765811
	4.489413
	4.099300
	3.610616
	3.029481
	2.385211
	1.682318
	0.931433
	0.162189
	-0.611560
	-1.368235
	-2.088830
	-2.764327
	-3.372822
	-3.898853
	-4.327925
	-4.650696
	-4.860401
	-4.954140
	-4.921283
	-4.761185
	-4.481579
	-4.092773
	-3.606363
	-3.032979
	-2.380353
	-1.672966
	-0.925311
	-0.158328
	0.611236
	1.374683
	2.100446
	2.773383
	3.380931
	3.904084
	4.335752
	4.664981
	4.873407
	4.960064
	4.923984
	4.766133
	4.490380
	4.101233
	3.608361
	3.033668
	2.387466
	1.679097
	0.933365
	0.161223
	-0.609305
	-1.364369
	-2.091085
	-2.767548
	-3.372500
	-3.895310
	-4.325670
	-4.649407
	-4.864910
	-4.951240
	-4.916451
	-4.758608
	-4.481902
	-4.096638
	-3.605074
	-3.028470
	-2.380353
	-1.674254
	-0.929821
	-0.157039
	0.617679
	1.374683
	2.097224
	2.771450
	3.381254
	3.908272
	4.337684
	4.658860
	4.869542
	4.961030
	4.927527
	4.768066
	4.487480
	4.096401
	3.613193
	3.037534
	2.386178
	1.677487
	0.930466
	0.165411
	-0.605762
	-1.367268
	-2.093017
	-2.764005
	-3.370245
	-3.893377
	-4.326959
	-4.653273
	-4.860401
	-4.949952
	-4.916451
	-4.759575
	-4.483190
	-4.092451
	-3.605719
	-3.029436
	-2.382286
	-1.677475
	-0.925956
	-0.154784
	0.615424
	1.373717
	2.096902
	2.774994
	3.383831
	3.907305
	4.334463
	4.660471
	4.872763
	4.962319
	4.925917
	4.763556
	4.489091
	4.102522
	3.613837
	3.034957
	2.382956
	1.679741
	0.935620
	0.165089
	-0.608983
	-1.367590
	-2.090440
	-2.762394
	-3.368634
	-3.896920
	-4.327603
	-4.650052
	-4.860723
	-4.951885
	-4.921605
	-4.758931
	-4.478680
	-4.091162
	-3.604430
	-3.031691
	-2.381642
	-1.672644
	-0.926278
	-0.159616
	0.613813
	1.372751
	2.101412
	2.775960
	3.380931
	3.904728
	4.336074
	4.662403
	4.872763
	4.959098
	4.920762
	4.764845
	4.489413
	4.100267
	3.609649
	3.032702
	2.387788
	1.682641
	0.932399
	0.161223
	-0.608017
	-1.365013
	-2.090440
	-2.766259
	-3.373144
	-3.895310
	-4.324060
	-4.651340
	-4.864910
	-4.953173
	-4.917739
	-4.757642
	-4.484156
	-4.095350
	-3.603786
	-3.028470
	-2.380353
	-1.676187
	-0.927244
	-0.156395
	0.617035
	1.370818
	2.097869
	2.775638
	3.381898
	3.905694
	4.335107
	4.662403
	4.874696
	4.961030
	4.920440
	4.766456
	4.490702
	4.100589
	3.611260
	3.033024
	2.387788
	1.681674
	0.930788
	0.161223
	-0.608017
	-1.364691
	-2.090118
	-2.766259
	-3.372177
	-3.893377
	-4.324382
	-4.652307
	-4.862655
	-4.951562
	-4.918061
	-4.758931
	-4.485123
	-4.094706
	-3.604752
	-3.030402
	-2.381320
	-1.677798
	-0.927566
	-0.155106
	0.615746
	1.371784
	2.098513
	2.774672
	3.382864
	3.906339
	4.332530
	4.662403
	4.874696
	4.961353
	4.923984
	4.762912
	4.488769
	4.102844
	3.611260
	3.032380
	2.386178
	1.681352
	0.934976
	0.163478
	-0.611238
	-1.364369
	-2.088830
	-2.766259
	-3.373788
	-3.895310
	-4.324704
	-4.649085
	-4.862655
	-4.951562
	-4.915162
	-4.759253
	-4.481257
	-4.096638
	-3.606363
	-3.028470
	-2.381642
	-1.677798
	-0.927244
	-0.155751
	0.617679
	1.373395
	2.097224
	2.775638
	3.383186
	3.905050
	4.334141
	4.661759
	4.872441
	4.961675
	4.922051
	4.764523
	4.490702
	4.100589
	3.612870
	3.032058
	2.384889
	1.681352
	0.933687
	0.163800
	-0.610272
	-1.366946
	-2.088508
	-2.762716
	-3.372177
	-3.897887
	-4.326314
	-4.650374
	-4.861367
	-4.953173
	-4.921283
	-4.759253
	-4.479002
	-4.090840
	-3.607651
	-3.032657
	-2.380675
	-1.672644
	-0.927244
	-0.158005
	0.612525
	1.373395
	2.101734
	2.774672
	3.379965
	3.903117
	4.337040
	4.663048
	4.871797
	4.957165
	4.922373
	4.766133
	4.490057
	4.100911
	3.608361
	3.035279
	2.386500
	1.680708
	0.931433
	0.159935
	-0.608339
	-1.364047
	-2.089152
	-2.765293
	-3.372500
	-3.893377
	-4.324382
	-4.651662
	-4.864588
	-4.953495
	-4.917095
	-4.757964
	-4.482868
	-4.095672
	-3.605074
	-3.029114
	-2.379709
	-1.677798
	-0.930143
	-0.156395
	0.615746
	1.375006
	2.097224
	2.771128
	3.382864
	3.907305
	4.336074
	4.658860
	4.868897
	4.961675
	4.926561
	4.762912
	4.487480
	4.101555
	3.612870
	3.037534
	2.382956
	1.679097
	0.934332
	0.162512
	-0.610272
	-1.369201
	-2.090440
	-2.762072
	-3.370567
	-3.898209
	-4.325992
	-4.650374
	-4.860401
	-4.953817
	-4.921927
	-4.758608
	-4.480935
	-4.093095
	-3.608940
	-3.032013
	-2.379387
	-1.673932
	-0.928855
	-0.160260
	0.614458
	1.374683
	2.099157
	2.769195
	3.381576
	3.907305
	4.337362
	4.659504
	4.870186
	4.962641
	4.926883
	4.763556
	4.486836
	4.100589
	3.613193
	3.036245
	2.382312
	1.680064
	0.934010
	0.163156
	-0.610916
	-1.368557
	-2.089152
	-2.762394
	-3.371533
	-3.898209
	-4.325670
	-4.650374
	-4.859756
	-4.954784
	-4.919028
	-4.758286
	-4.481902
	-4.093739
	-3.608618
	-3.030724
	-2.378743
	-1.674254
	-0.928211
	-0.160905
	0.614458
	1.375328
	2.099157
	2.769840
	3.378999
	3.907949
	4.338007
	4.660793
	4.870186
	4.962641
	4.927527
	4.767744
	4.484259
	4.098334
	3.614803
	3.036890
	2.387144
	1.677164
	0.932077
	0.166377
	-0.607373
	-1.367268
	-2.092695
	-2.764971
	-3.368312
	-3.893699
	-4.326637
	-4.651340
	-4.862333
	-4.950596
	-4.916773
	-4.761185
	-4.483190
	-4.095350
	-3.604430
	-3.029114
	-2.380031
	-1.675543
	-0.927888
	-0.157683
	0.617357
	1.373395
	2.095936
	2.772095
	3.381898
	3.908916
	4.336396
	4.659504
	4.870186
	4.961353
	4.927527
	4.765811
	4.485870
	4.099300
	3.611582
	3.038178
	2.385211
	1.677164
	0.933687
	0.165089
	-0.607373
	-1.367590
	-2.094628
	-2.763038
	-3.368956
	-3.894665
	-4.326314
	-4.653595
	-4.860723
	-4.950596
	-4.918061
	-4.760863
	-4.482868
	-4.091807
	-3.604108
	-3.032013
	-2.383252
	-1.675221
	-0.925956
	-0.155751
	0.613169
	1.371462
	2.099802
	2.774994
	3.383509
	3.903117
	4.333819
	4.661437
	4.871797
	4.961353
	4.922373
	4.764201
	4.489735
	4.101233
	3.611260
	3.033346
	2.386822
	1.682641
	0.933365
	0.161223
	-0.609627
	-1.366302
	-2.089152
	-2.766582
	-3.372822
	-3.892733
	-4.324704
	-4.649730
	-4.865232
	-4.954462
	-4.915484
	-4.759253
	-4.483190
	-4.095672
	-3.604430
	-3.027181
	-2.381320
	-1.678442
	-0.928533
	-0.157361
	0.616068
	1.370496
	2.097869
	2.776282
	3.381576
	3.904728
	4.334785
	4.661437
	4.874052
	4.959742
	4.922695
	4.764845
	4.489413
	4.101878
	3.610938
	3.032702
	2.386822
	1.681352
	0.933687
	0.161545
	-0.613171
	-1.366302
	-2.090118
	-2.765937
	-3.374432
	-3.896920
	-4.325348
	-4.648441
	-4.862978
	-4.953495
	-4.917739
	-4.759253
	-4.480291
	-4.097283
	-3.607329
	-3.029114
	-2.380675
	-1.674898
	-0.929821
	-0.159616
	0.617357
	1.373717
	2.095292
	2.770806
	3.380287
	3.907627
	4.336718
	4.658538
	4.872763
	4.962319
	4.925595
	4.764201
	4.484903
	4.100589
	3.613515
	3.033991
	2.383923
	1.681352
	0.934976
	0.166699
	-0.608983
	-1.369523
	-2.090763
	-2.763360
	-3.370245
	-3.895310
	-4.328891
	-4.651018
	-4.859756
	-4.951562
	-4.918706
	-4.762474
	-4.481902
	-4.091484
	-3.605396
	-3.031369
	-2.384219
	-1.674898
	-0.925311
	-0.157039
	0.612847
	1.373717
	2.099802
	2.774027
	3.378032
	3.902473
	4.337362
	4.662081
	4.871474
	4.957165
	4.924628
	4.768066
	4.488447
	4.097045
	3.608038
	3.035601
	2.388755
	1.681352
	0.931110
	0.163478
	-0.606728
	-1.364047
	-2.091729
	-2.765937
	-3.370245
	-3.893699
	-4.324704
	-4.652307
	-4.862655
	-4.950596
	-4.914518
	-4.759897
	-4.483190
	-4.094384
	-3.605396
	-3.028792
	-2.382930
	-1.677153
	-0.927244
	-0.156717
	0.616068
	1.372751
	2.095936
	2.774027
	3.380931
	3.904084
	4.333819
	4.658860
	4.872763
	4.963608
	4.924950
	4.764523
	4.487480
	4.100911
	3.613515
	3.036568
	2.383923
	1.678775
	0.933687
	0.166377
	-0.605118
	-1.366624
	-2.092695
	-2.764649
	-3.370567
	-3.893699
	-4.325992
	-4.653595
	-4.863300
	-4.952207
	-4.915806
	-4.757964
	-4.482224
	-4.095350
	-3.607651
	-3.029436
	-2.380031
	-1.676831
	-0.930143
	-0.160905
	0.615746
	1.375328
	2.099157
	2.770806
	3.379643
	3.906339
	4.336718
	4.660471
	4.867609
	4.959742
	4.925917
	4.766456
	4.487480
	4.097690
	3.613193
	3.037534
	2.388111
	1.677809
	0.931755
	0.166699
	-0.607373
	-1.366946
	-2.093017
	-2.765615
	-3.368956
	-3.893377
	-4.327925
	-4.651984
	-4.862011
	-4.951562
	-4.915484
	-4.762474
	-4.483512
	-4.093417
	-3.604752
	-3.029114
	-2.382608
	-1.678120
	-0.927566
	-0.157361
	0.616068
	1.371784
	2.094970
	2.773383
	3.380609
	3.906017
	4.334785
	4.658538
	4.872119
	4.962641
	4.924628
	4.765489
	4.486836
	4.101233
	3.614481
	3.034957
	2.384567
	1.679097
	0.934332
	0.166377
	-0.608339
	-1.368235
	-2.090118
	-2.763038
	-3.369278
	-3.894665
	-4.328247
	-4.651984
	-4.861367
	-4.951240
	-4.918706
	-4.761830
	-4.482224
	-4.094061
	-3.604108
	-3.030080
	-2.384863
	-1.676831
	-0.926922
	-0.157039
	0.615102
	1.368241
	2.096258
	2.773705
	3.379643
	3.904728
	4.331886
	4.659504
	4.874052
	4.960064
	4.922695
	4.763234
	4.487480
	4.101555
	3.611582
	3.032702
	2.384567
	1.680386
	0.936265
	0.165411
	-0.610272
	-1.366302
	-2.088508
	-2.761750
	-3.370245
	-3.897887
	-4.326637
	-4.650052
	-4.860078
	-4.954784
	-4.921927
	-4.758286
	-4.481257
	-4.093417
	-3.608296
	-3.034268
	-2.379709
	-1.675221
	-0.927566
	-0.159294
	0.612525
	1.375972
	2.100768
	2.771450
	3.378032
	3.903762
	4.338329
	4.662403
	4.869864
	4.957809
	4.924950
	4.768066
	4.490057
	4.098012
	3.610616
	3.037856
	2.387788
	1.680386
	0.930144
	0.165089
	-0.607050
	-1.365013
	-2.092051
	-2.766582
	-3.369923
	-3.894343
	-4.327281
	-4.653273
	-4.861367
	-4.950596
	-4.914840
	-4.760219
	-4.482868
	-4.093095
	-3.606363
	-3.031691
	-2.385829
	-1.678764
	-0.927244
	-0.158972
	0.614780
	1.370818
	2.095936
	2.774027
	3.381254
	3.904084
	4.335429
	4.659504
	4.871797
	4.963285
	4.921729
	4.763234
	4.490702
	4.101233
	3.612548
	3.033024
	2.384245
	1.682641
	0.934010
	0.162834
	-0.610594
	-1.368235
	-2.088830
	-2.762394
	-3.369923
	-3.896598
	-4.326637
	-4.650374
	-4.860401
	-4.951562
	-4.921927
	-4.760863
	-4.482868
	-4.093095
	-3.609262
	-3.033301
	-2.382608
	-1.674254
	-0.927888
	-0.160905
	0.611558
	1.372106
	2.098191
	2.773061
	3.378999
	3.901507
	4.334785
	4.660793
	4.871474
	4.961030
	4.921729
	4.765167
	4.490057
	4.100589
	3.613193
	3.033668
	2.384889
	1.682963
	0.934010
	0.165411
	-0.610272
	-1.368235
	-2.088186
	-2.762394
	-3.368956
	-3.894665
	-4.328891
	-4.649730
	-4.861045
	-4.952529
	-4.919028
	-4.764729
	-4.483834
	-4.093739
	-3.605719
	-3.029758
	-2.384541
	-1.676831
	-0.925956
	-0.157361
	0.615424
	1.369851
	2.095936
	2.773061
	3.380609
	3.905694
	4.334141
	4.657893
	4.871797
	4.962641
	4.925595
	4.764523
	4.484259
	4.099945
	3.611904
	3.034957
	2.384567
	1.677809
	0.934332
	0.167021
	-0.608983
	-1.369845
	-2.093017
	-2.764005
	-3.370245
	-3.895310
	-4.328569
	-4.651984
	-4.861045
	-4.950274
	-4.917739
	-4.762474
	-4.484801
	-4.094706
	-3.607007
	-3.030724
	-2.385507
	-1.679408
	-0.927566
	-0.157039
	0.615746
	1.370174
	2.094970
	2.772417
	3.380609
	3.905372
	4.333819
	4.657893
	4.870830
	4.962963
	4.924950
	4.763234
	4.486836
	4.100589
	3.614159
	3.035923
	2.382956
	1.680064
	0.934654
	0.165089
	-0.608017
	-1.369845
	-2.090440
	-2.762072
	-3.370245
	-3.896920
	-4.329858
	-4.649730
	-4.860078
	-4.951885
	-4.918706
	-4.762796
	-4.483512
	-4.093417
	-3.607973
	-3.034268
	-2.385829
	-1.677798
	-0.927566
	-0.158328
	0.611881
	1.370818
	2.097547
	2.773383
	3.381254
	3.904406
	4.333819
	4.659504
	4.873085
	4.961675
	4.923017
	4.763878
	4.489091
	4.102522
	3.610938
	3.031736
	2.383923
	1.679741
	0.932399
	0.164122
	-0.611238
	-1.365658
	-2.087541
	-2.763038
	-3.368956
	-3.898853
	-4.327281
	-4.650052
	-4.862978
	-4.953495
	-4.920638
	-4.761185
	-4.480291
	-4.093739
	-3.608940
	-3.034268
	-2.383897
	-1.674254
	-0.928855
	-0.160905
	0.611236
	1.370818
	2.100446
	2.774027
	3.378999
	3.903440
	4.335107
	4.662081
	4.872119
	4.957487
	4.921407
	4.765811
	4.490380
	4.101878
	3.610616
	3.032380
	2.385856
	1.681674
	0.934332
	0.163800
	-0.609950
	-1.365336
	-2.088186
	-2.761750
	-3.369923
	-3.897242
	-4.326314
	-4.649407
	-4.861367
	-4.953495
	-4.921283
	-4.760863
	-4.481257
	-4.094384
	-3.607007
	-3.034268
	-2.381642
	-1.674254
	-0.928855
	-0.160260
	0.612203
	1.371140
	2.099802
	2.773705
	3.380287
	3.904728
	4.334141
	4.661759
	4.874374
	4.959742
	4.922051
	4.765489
	4.488769
	4.101878
	3.611904
	3.033024
	2.388433
	1.681674
	0.933043
	0.162834
	-0.611882
	-1.365336
	-2.088186
	-2.764649
	-3.371211
	-3.895632
	-4.324704
	-4.648441
	-4.861689
	-4.954462
	-4.920316
	-4.761185
	-4.480935
	-4.094061
	-3.609906
	-3.031691
	-2.381642
	-1.675865
	-0.929177
	-0.164448
	0.611236
	1.372429
	2.097547
	2.771128
	3.375455
	3.904084
	4.337362
	4.659826
	4.869542
	4.957165
	4.924306
	4.767744
	4.488125
	4.096723
	3.609971
	3.036568
	2.389077
	1.680386
	0.930144
	0.162834
	-0.608661
	-1.365658
	-2.090118
	-2.766904
	-3.373144
	-3.894021
	-4.324382
	-4.649407
	-4.862655
	-4.955106
	-4.919350
	-4.760541
	-4.481257
	-4.095672
	-3.610228
	-3.032979
	-2.381642
	-1.674898
	-0.929499
	-0.163482
	0.613169
	1.373395
	2.097869
	2.771450
	3.375777
	3.903440
	4.337040
	4.660148
	4.869864
	4.957165
	4.922373
	4.767744
	4.488447
	4.099945
	3.609971
	3.033668
	2.388755
	1.681996
	0.933687
	0.163478
	-0.610272
	-1.364691
	-2.088186
	-2.763360
	-3.372500
	-3.896598
	-4.325026
	-4.648763
	-4.860723
	-4.954784
	-4.920316
	-4.761185
	-4.481579
	-4.093417
	-3.610228
	-3.034590
	-2.383252
	-1.674898
	-0.926600
	-0.161549
	0.610592
	1.373395
	2.097547
	2.772095
	3.376744
	3.900862
	4.336396
	4.660793
	4.872441
	4.959420
	4.920762
	4.765811
	4.490057
	4.101555
	3.612548
	3.033346
	2.387466
	1.681996
	0.933043
	0.163156
	-0.610594
	-1.365980
	-2.087863
	-2.763682
	-3.372500
	-3.896598
	-4.325348
	-4.649085
	-4.861689
	-4.955106
	-4.919994
	-4.759575
	-4.481257
	-4.092773
	-3.608618
	-3.033624
	-2.382286
	-1.674254
	-0.928855
	-0.161549
	0.611558
	1.373073
	2.098513
	2.774027
	3.376422
	3.902473
	4.336074
	4.659826
	4.870830
	4.956198
	4.923017
	4.768711
	4.489091
	4.099300
	3.610293
	3.035601
	2.390366
	1.681674
	0.930144
	0.164766
	-0.606406
	-1.363403
	-2.089474
	-2.767226
	-3.370567
	-3.894021
	-4.325026
	-4.651662
	-4.864266
	-4.951562
	-4.917417
	-4.761830
	-4.484801
	-4.094706
	-3.606363
	-3.029758
	-2.383575
	-1.679408
	-0.927888
	-0.159294
	0.614135
	1.370818
	2.094325
	2.773061
	3.380931
	3.903762
	4.333174
	4.658538
	4.871474
	4.962319
	4.923662
	4.762268
