LabVIEW Measurement	
Writer_Version	2
Reader_Version	2
Separator	Tab
Decimal_Separator	.
Multi_Headings	No
X_Columns	No
Time_Pref	Absolute
Operator	orzr
Date	2022/04/28
Time	13:18:03.3290221499427642489
***End_of_Header***	
	
Channels	1	
Samples	20000	
Date	2022/04/28	
Time	13:18:03.3290221499427642489	
Y_Unit_Label	Volts	
X_Dimension	Time	
X0	0.0000000000000000E+0	
Delta_X	0.001000	
***End_of_Header***		
X_Value	Voltage	Comment
	-0.026255
	-0.024967
	-0.013370
	-0.019491
	-0.017880
	-0.018524
	-0.021101
	-0.016591
	-0.022068
	-0.020135
	-0.023678
	-0.024323
	-0.028188
	-0.034308
	-0.032376
	-0.038496
	-0.034631
	-0.036563
	-0.037530
	-0.033342
	-0.029477
	-0.019491
	-0.016591
	-0.016914
	-0.017880
	-0.018846
	-0.016914
	-0.019168
	-0.017558
	-0.020135
	-0.021423
	-0.022390
	-0.029477
	-0.029477
	-0.034308
	-0.034953
	-0.034308
	-0.038174
	-0.033986
	-0.034631
	-0.028188
	-0.021745
	-0.018524
	-0.017558
	-0.019813
	-0.015303
	-0.015303
	-0.018524
	-0.016269
	-0.020779
	-0.018846
	-0.023034
	-0.025611
	-0.026900
	-0.027222
	-0.025933
	-0.028832
	-0.025289
	-0.020135
	-0.013692
	-0.002740
	0.004025
	0.017876
	0.016910
	0.018843
	0.022386
	0.025607
	0.030761
	0.030117
	0.033983
	0.030761
	0.033016
	0.033660
	0.032050
	0.037204
	0.033338
	0.035271
	0.036882
	0.041069
	0.050411
	0.056854
	0.069417
	0.074893
	0.082302
	0.084234
	0.089711
	0.093576
	0.094865
	0.101307
	0.100985
	0.106783
	0.103240
	0.101629
	0.103884
	0.101307
	0.103562
	0.098730
	0.105817
	0.107428
	0.109360
	0.119669
	0.123856
	0.137063
	0.133842
	0.135775
	0.135775
	0.133842
	0.135453
	0.127400
	0.126755
	0.119024
	0.110005
	0.103562
	0.091321
	0.092288
	0.085201
	0.084557
	0.078758
	0.074249
	0.075537
	0.072316
	0.077148
	0.072960
	0.073282
	0.064907
	0.060719
	0.052666
	0.043002
	0.037526
	0.030117
	0.023997
	0.017876
	0.006602
	0.003380
	-0.007894
	-0.010149
	-0.023034
	-0.028832
	-0.034631
	-0.036241
	-0.032376
	-0.034631
	-0.033020
	-0.034953
	-0.044294
	-0.046227
	-0.054280
	-0.052670
	-0.058146
	-0.059112
	-0.064266
	-0.073608
	-0.078440
	-0.088426
	-0.092614
	-0.100345
	-0.103888
	-0.107754
	-0.109364
	-0.102922
	-0.103566
	-0.101311
	-0.101311
	-0.100989
	-0.104854
	-0.109364
	-0.110008
	-0.113874
	-0.112585
	-0.115162
	-0.115162
	-0.111941
	-0.114840
	-0.115162
	-0.118384
	-0.116773
	-0.120317
	-0.114840
	-0.110975
	-0.102599
	-0.090037
	-0.082950
	-0.068776
	-0.053958
	-0.048160
	-0.025933
	0.013366
	0.146083
	0.257217
	0.453071
	0.602861
	0.801614
	0.949472
	1.113114
	1.223926
	1.315734
	1.367597
	1.399810
	1.407541
	1.409796
	1.371140
	1.328941
	1.260005
	1.199767
	1.112469
	1.040957
	0.955592
	0.888267
	0.813533
	0.758449
	0.673407
	0.614458
	0.523617
	0.468855
	0.374150
	0.322287
	0.234346
	0.188926
	0.106461
	0.064263
	0.022386
	-0.002096
	-0.031731
	-0.052025
	-0.094868
	-0.117095
	-0.169602
	-0.196016
	-0.242725
	-0.269461
	-0.296520
	-0.321324
	-0.346450
	-0.363845
	-0.367388
	-0.364811
	-0.360946
	-0.343551
	-0.331310
	-0.306506
	-0.280414
	-0.259153
	-0.232739
	-0.223397
	-0.211156
	-0.201493
	-0.192473
	-0.182165
	-0.177977
	-0.167991
	-0.168313
	-0.160582
	-0.161871
	-0.157683
	-0.154462
	-0.157039
	-0.155751
	-0.153818
	-0.147375
	-0.138678
	-0.127725
	-0.120961
	-0.117739
	-0.113874
	-0.117095
	-0.111941
	-0.107109
	-0.108398
	-0.107431
	-0.113230
	-0.108076
	-0.110008
	-0.108076
	-0.109042
	-0.112585
	-0.111941
	-0.116129
	-0.114518
	-0.114196
	-0.110008
	-0.100989
	-0.098734
	-0.090681
	-0.092614
	-0.092936
	-0.093580
	-0.092291
	-0.092291
	-0.093902
	-0.093580
	-0.098090
	-0.097123
	-0.102922
	-0.102277
	-0.103566
	-0.107754
	-0.105499
	-0.110331
	-0.101955
	-0.098734
	-0.086171
	-0.083916
	-0.078118
	-0.075219
	-0.081339
	-0.075863
	-0.081661
	-0.075863
	-0.077151
	-0.073608
	-0.074252
	-0.077796
	-0.072642
	-0.077151
	-0.073930
	-0.078118
	-0.079084
	-0.076185
	-0.073608
	-0.064911
	-0.061045
	-0.051381
	-0.049771
	-0.045905
	-0.048804
	-0.050093
	-0.047516
	-0.047516
	-0.043006
	-0.045583
	-0.043650
	-0.041717
	-0.044617
	-0.043328
	-0.046549
	-0.041073
	-0.043006
	-0.039463
	-0.040751
	-0.034308
	-0.027222
	-0.020457
	-0.010149
	-0.012082
	-0.010149
	-0.007572
	-0.003706
	-0.003062
	-0.004351
	-0.004673
	-0.007894
	-0.002418
	-0.006606
	-0.004995
	-0.005961
	-0.006606
	-0.000807
	-0.002096
	0.009501
	0.013044
	0.026574
	0.035271
	0.039781
	0.043324
	0.040103
	0.047834
	0.050411
	0.054599
	0.059109
	0.058786
	0.065551
	0.064585
	0.064907
	0.062008
	0.062974
	0.063618
	0.066517
	0.070061
	0.073926
	0.083912
	0.090355
	0.095831
	0.104851
	0.105817
	0.111615
	0.112260
	0.118380
	0.123212
	0.125467
	0.127722
	0.125145
	0.125145
	0.123212
	0.125467
	0.121923
	0.122568
	0.125789
	0.125789
	0.129010
	0.129010
	0.136419
	0.139318
	0.145761
	0.148338
	0.148338
	0.153492
	0.149304
	0.152526
	0.147049
	0.147372
	0.145439
	0.142862
	0.141251
	0.134164
	0.134164
	0.133520
	0.136097
	0.135775
	0.136419
	0.140285
	0.143184
	0.148982
	0.154136
	0.154458
	0.152526
	0.151237
	0.153170
	0.148016
	0.150915
	0.147372
	0.147049
	0.143506
	0.138030
	0.131909
	0.125467
	0.122890
	0.118702
	0.119669
	0.117414
	0.116447
	0.119024
	0.115159
	0.120313
	0.118702
	0.116447
	0.111937
	0.110327
	0.109683
	0.104851
	0.106783
	0.099697
	0.094865
	0.085845
	0.077792
	0.073282
	0.063940
	0.063296
	0.059753
	0.058464
	0.057176
	0.063296
	0.066195
	0.064585
	0.063940
	0.055565
	0.053632
	0.047512
	0.044291
	0.042680
	0.037526
	0.034305
	0.027218
	0.018520
	0.014011
	0.003058
	0.001126
	-0.004028
	-0.003384
	-0.007894
	-0.007894
	0.000159
	-0.001451
	0.003058
	-0.003384
	-0.007572
	-0.011115
	-0.010471
	-0.011760
	-0.020457
	-0.022712
	-0.031409
	-0.032698
	-0.037852
	-0.043006
	-0.048482
	-0.052992
	-0.052670
	-0.057502
	-0.054280
	-0.052992
	-0.043006
	-0.044617
	-0.041395
	-0.041073
	-0.046549
	-0.043650
	-0.047516
	-0.043650
	-0.046549
	-0.045905
	-0.046227
	-0.053958
	-0.058790
	-0.065233
	-0.066843
	-0.071031
	-0.069420
	-0.070065
	-0.067810
	-0.065233
	-0.058790
	-0.053636
	-0.051059
	-0.046871
	-0.051381
	-0.048804
	-0.052670
	-0.055247
	-0.056535
	-0.061045
	-0.063300
	-0.071031
	-0.072320
	-0.078440
	-0.079728
	-0.082628
	-0.089070
	-0.089714
	-0.092936
	-0.087460
	-0.083916
	-0.084238
	-0.078118
	-0.081017
	-0.080695
	-0.082628
	-0.080695
	-0.080695
	-0.080695
	-0.082950
	-0.086171
	-0.085205
	-0.091647
	-0.092936
	-0.095191
	-0.095835
	-0.095835
	-0.098734
	-0.095513
	-0.095835
	-0.084238
	-0.082305
	-0.074574
	-0.074897
	-0.076507
	-0.074897
	-0.077151
	-0.075219
	-0.078762
	-0.077151
	-0.079728
	-0.080695
	-0.085527
	-0.086815
	-0.088426
	-0.093258
	-0.090359
	-0.095513
	-0.090359
	-0.088104
	-0.079406
	-0.074897
	-0.071353
	-0.068776
	-0.074252
	-0.071675
	-0.072320
	-0.069420
	-0.071675
	-0.072964
	-0.074252
	-0.079084
	-0.079084
	-0.085527
	-0.082628
	-0.086815
	-0.087137
	-0.088104
	-0.091003
	-0.082305
	-0.077474
	-0.070709
	-0.067488
	-0.064266
	-0.067810
	-0.067165
	-0.065233
	-0.068454
	-0.065555
	-0.069742
	-0.068454
	-0.071353
	-0.076507
	-0.077796
	-0.082628
	-0.081017
	-0.085849
	-0.081983
	-0.082628
	-0.080051
	-0.070709
	-0.069420
	-0.061367
	-0.063300
	-0.062334
	-0.063944
	-0.061045
	-0.061045
	-0.064266
	-0.063944
	-0.068132
	-0.066521
	-0.073930
	-0.074252
	-0.075863
	-0.080373
	-0.077474
	-0.081661
	-0.077151
	-0.078440
	-0.066521
	-0.062978
	-0.058468
	-0.056213
	-0.062011
	-0.057502
	-0.060723
	-0.055891
	-0.058790
	-0.061367
	-0.061045
	-0.067488
	-0.065555
	-0.073608
	-0.068776
	-0.074574
	-0.075863
	-0.075219
	-0.077796
	-0.070709
	-0.067488
	-0.058468
	-0.055569
	-0.054280
	-0.055569
	-0.059112
	-0.055247
	-0.057502
	-0.054603
	-0.057502
	-0.059434
	-0.060401
	-0.066843
	-0.064911
	-0.072642
	-0.069098
	-0.074252
	-0.073286
	-0.071675
	-0.070065
	-0.058790
	-0.059757
	-0.049771
	-0.052992
	-0.051381
	-0.052992
	-0.052670
	-0.049771
	-0.056535
	-0.052670
	-0.059112
	-0.056535
	-0.061045
	-0.064266
	-0.063300
	-0.071031
	-0.066199
	-0.072320
	-0.067810
	-0.063944
	-0.058146
	-0.050093
	-0.050737
	-0.044617
	-0.050415
	-0.048160
	-0.049771
	-0.049448
	-0.049771
	-0.054603
	-0.051703
	-0.059112
	-0.057180
	-0.063622
	-0.062656
	-0.066199
	-0.066199
	-0.066199
	-0.068454
	-0.062334
	-0.059112
	-0.051059
	-0.044939
	-0.043328
	-0.043972
	-0.046549
	-0.044294
	-0.046549
	-0.045905
	-0.049448
	-0.049771
	-0.053636
	-0.056535
	-0.058790
	-0.062011
	-0.060723
	-0.066199
	-0.063944
	-0.064266
	-0.058146
	-0.051059
	-0.045905
	-0.041717
	-0.042362
	-0.043006
	-0.044617
	-0.041073
	-0.043650
	-0.044294
	-0.045583
	-0.048482
	-0.049448
	-0.054603
	-0.054925
	-0.058790
	-0.057180
	-0.059434
	-0.062334
	-0.059112
	-0.058468
	-0.048804
	-0.045905
	-0.039785
	-0.038174
	-0.043328
	-0.039463
	-0.042040
	-0.040429
	-0.041073
	-0.044939
	-0.044294
	-0.047194
	-0.048482
	-0.054280
	-0.054280
	-0.056213
	-0.057824
	-0.057502
	-0.059112
	-0.053958
	-0.047838
	-0.043328
	-0.037530
	-0.038818
	-0.038174
	-0.039785
	-0.037530
	-0.038818
	-0.039785
	-0.039785
	-0.043328
	-0.043650
	-0.048804
	-0.050737
	-0.053958
	-0.053314
	-0.055891
	-0.057180
	-0.055247
	-0.055247
	-0.043650
	-0.042040
	-0.033986
	-0.034308
	-0.035919
	-0.035597
	-0.036885
	-0.034308
	-0.039463
	-0.037852
	-0.041717
	-0.042040
	-0.045583
	-0.048482
	-0.049126
	-0.054603
	-0.052025
	-0.056857
	-0.052348
	-0.051059
	-0.043972
	-0.037852
	-0.033986
	-0.031409
	-0.034308
	-0.035597
	-0.033020
	-0.036885
	-0.034953
	-0.036563
	-0.037530
	-0.039140
	-0.044294
	-0.045261
	-0.049771
	-0.050093
	-0.051381
	-0.052992
	-0.051703
	-0.049771
	-0.039785
	-0.036885
	-0.031731
	-0.028188
	-0.034308
	-0.030443
	-0.034308
	-0.031409
	-0.032376
	-0.036563
	-0.035275
	-0.039140
	-0.041073
	-0.045261
	-0.045261
	-0.047516
	-0.049448
	-0.049126
	-0.052025
	-0.045583
	-0.037852
	-0.034631
	-0.027544
	-0.029799
	-0.028510
	-0.033020
	-0.028510
	-0.030121
	-0.033020
	-0.030765
	-0.035919
	-0.033664
	-0.041395
	-0.041073
	-0.044294
	-0.047516
	-0.044617
	-0.050415
	-0.044939
	-0.046549
	-0.035275
	-0.032054
	-0.028188
	-0.024000
	-0.030443
	-0.025611
	-0.029154
	-0.028510
	-0.027866
	-0.032376
	-0.029154
	-0.035919
	-0.035275
	-0.038818
	-0.043006
	-0.042684
	-0.048482
	-0.045261
	-0.048482
	-0.043328
	-0.034308
	-0.032698
	-0.023034
	-0.027222
	-0.024323
	-0.025933
	-0.028188
	-0.024967
	-0.030765
	-0.027222
	-0.031087
	-0.031731
	-0.034953
	-0.041717
	-0.038174
	-0.045261
	-0.042362
	-0.044939
	-0.043650
	-0.038496
	-0.034631
	-0.025933
	-0.025289
	-0.020779
	-0.024967
	-0.023356
	-0.023034
	-0.026577
	-0.024000
	-0.028188
	-0.026255
	-0.030121
	-0.033020
	-0.034953
	-0.041073
	-0.038818
	-0.042362
	-0.040107
	-0.041717
	-0.039140
	-0.029799
	-0.029154
	-0.018202
	-0.022712
	-0.020779
	-0.022068
	-0.022390
	-0.021423
	-0.026900
	-0.023678
	-0.026577
	-0.027866
	-0.032054
	-0.036563
	-0.034953
	-0.042362
	-0.038496
	-0.041717
	-0.040107
	-0.035919
	-0.032054
	-0.023678
	-0.022068
	-0.016914
	-0.021423
	-0.022068
	-0.020457
	-0.022390
	-0.021101
	-0.024967
	-0.023356
	-0.026577
	-0.030443
	-0.033664
	-0.038496
	-0.036885
	-0.040107
	-0.038174
	-0.038496
	-0.037208
	-0.026577
	-0.026900
	-0.015625
	-0.019168
	-0.020779
	-0.020457
	-0.021423
	-0.019813
	-0.024967
	-0.020135
	-0.025611
	-0.024967
	-0.029154
	-0.033986
	-0.033342
	-0.039140
	-0.034953
	-0.039463
	-0.035597
	-0.033986
	-0.028510
	-0.019491
	-0.019813
	-0.015625
	-0.018846
	-0.017558
	-0.016914
	-0.019168
	-0.018524
	-0.021423
	-0.020135
	-0.023034
	-0.028832
	-0.030443
	-0.034308
	-0.034308
	-0.036241
	-0.036885
	-0.034631
	-0.034308
	-0.024000
	-0.021101
	-0.015625
	-0.014014
	-0.019491
	-0.015303
	-0.016914
	-0.015947
	-0.016591
	-0.021745
	-0.020779
	-0.026255
	-0.026255
	-0.030121
	-0.032376
	-0.033020
	-0.037208
	-0.034631
	-0.036241
	-0.030765
	-0.023034
	-0.021745
	-0.011437
	-0.018202
	-0.013692
	-0.018202
	-0.013370
	-0.015947
	-0.018524
	-0.015625
	-0.022712
	-0.019813
	-0.027544
	-0.023034
	-0.022390
	-0.026255
	-0.023034
	-0.023678
	-0.015625
	-0.008216
	0.002092
	0.014655
	0.018843
	0.022386
	0.020775
	0.025285
	0.029795
	0.031728
	0.036237
	0.034305
	0.033983
	0.037526
	0.033016
	0.038170
	0.036882
	0.035593
	0.039781
	0.037848
	0.048156
	0.052988
	0.064263
	0.074571
	0.079080
	0.090033
	0.089389
	0.094220
	0.100663
	0.100341
	0.108394
	0.106139
	0.108072
	0.106461
	0.107428
	0.107428
	0.102274
	0.103562
	0.106139
	0.106461
	0.110649
	0.110971
	0.124500
	0.129655
	0.133520
	0.136741
	0.131909
	0.134809
	0.134486
	0.132876
	0.127400
	0.119669
	0.114515
	0.108394
	0.096797
	0.094543
	0.087778
	0.084879
	0.080369
	0.072638
	0.071994
	0.067162
	0.072960
	0.071349
	0.071349
	0.070705
	0.058786
	0.054599
	0.043324
	0.040425
	0.033660
	0.026574
	0.021742
	0.009501
	0.006924
	-0.003706
	-0.009827
	-0.020135
	-0.031087
	-0.033020
	-0.040107
	-0.039463
	-0.036241
	-0.039140
	-0.033664
	-0.043972
	-0.044617
	-0.052025
	-0.054603
	-0.054280
	-0.060079
	-0.063300
	-0.069742
	-0.076507
	-0.081983
	-0.092614
	-0.095191
	-0.104854
	-0.105821
	-0.106143
	-0.108720
	-0.108398
	-0.106465
	-0.103888
	-0.100022
	-0.102277
	-0.105499
	-0.112263
	-0.110331
	-0.111941
	-0.112263
	-0.113552
	-0.111941
	-0.109364
	-0.115162
	-0.115485
	-0.117095
	-0.117095
	-0.113874
	-0.114196
	-0.106143
	-0.101311
	-0.085205
	-0.077796
	-0.056213
	-0.045261
	-0.029799
	-0.001774
	0.131265
	0.228226
	0.435032
	0.568715
	0.786474
	0.919836
	1.103450
	1.203954
	1.311868
	1.360832
	1.398521
	1.408507
	1.407219
	1.382737
	1.331840
	1.271602
	1.199767
	1.125677
	1.048688
	0.966545
	0.897609
	0.824486
	0.766502
	0.686937
	0.621222
	0.540368
	0.474654
	0.389612
	0.326797
	0.245621
	0.194724
	0.112260
	0.067806
	0.018843
	-0.000163
	-0.033986
	-0.047516
	-0.087137
	-0.115162
	-0.159938
	-0.190218
	-0.234672
	-0.259798
	-0.295232
	-0.311338
	-0.344839
	-0.356758
	-0.364167
	-0.364811
	-0.357080
	-0.349993
	-0.330343
	-0.315526
	-0.289433
	-0.264307
	-0.242081
	-0.220820
	-0.213411
	-0.202459
	-0.194406
	-0.182809
	-0.172179
	-0.169924
	-0.163804
	-0.162837
	-0.156073
	-0.157039
	-0.153496
	-0.152207
	-0.157683
	-0.151563
	-0.152851
	-0.143510
	-0.137389
	-0.126437
	-0.119672
	-0.117739
	-0.113230
	-0.114840
	-0.107754
	-0.108720
	-0.106787
	-0.106465
	-0.110331
	-0.102922
	-0.108076
	-0.106465
	-0.109686
	-0.110653
	-0.111941
	-0.115485
	-0.113874
	-0.116129
	-0.109042
	-0.104532
	-0.096157
	-0.090037
	-0.091325
	-0.092936
	-0.094868
	-0.089714
	-0.095191
	-0.092291
	-0.093580
	-0.096801
	-0.095835
	-0.103888
	-0.102922
	-0.106143
	-0.106787
	-0.106787
	-0.106143
	-0.098734
	-0.099700
	-0.088104
	-0.083594
	-0.077151
	-0.074897
	-0.081339
	-0.076185
	-0.079728
	-0.073286
	-0.070387
	-0.075219
	-0.071353
	-0.071353
	-0.070065
	-0.073930
	-0.073286
	-0.074574
	-0.077151
	-0.073930
	-0.071675
	-0.064266
	-0.058146
	-0.053958
	-0.046871
	-0.049771
	-0.048804
	-0.049126
	-0.045583
	-0.041395
	-0.042362
	-0.041395
	-0.041717
	-0.038818
	-0.040107
	-0.044617
	-0.040751
	-0.043006
	-0.038496
	-0.041073
	-0.039785
	-0.033342
	-0.026577
	-0.015625
	-0.012726
	-0.008860
	-0.005961
	-0.005961
	-0.001451
	-0.004995
	-0.003706
	-0.005639
	-0.002418
	0.000803
	-0.006283
	-0.003062
	-0.004351
	-0.000163
	0.002736
	0.002414
	0.011756
	0.013689
	0.032050
	0.035271
	0.040425
	0.045257
	0.043646
	0.051700
	0.053310
	0.059109
	0.062974
	0.063940
	0.068450
	0.066517
	0.066195
	0.065873
	0.064585
	0.070383
	0.068772
	0.075215
	0.078436
	0.083912
	0.091643
	0.096153
	0.107106
	0.110971
	0.114192
	0.118702
	0.121923
	0.127077
	0.126755
	0.128688
	0.125145
	0.130299
	0.128044
	0.125789
	0.124500
	0.125467
	0.127722
	0.123856
	0.127722
	0.129332
	0.137386
	0.141251
	0.145761
	0.150593
	0.147049
	0.152848
	0.151237
	0.150271
	0.150915
	0.145439
	0.146405
	0.141251
	0.140607
	0.135131
	0.135453
	0.137063
	0.133842
	0.135775
	0.134486
	0.138352
	0.146083
	0.147694
	0.155747
	0.150593
	0.153814
	0.150915
	0.151881
	0.151881
	0.146727
	0.150271
	0.142540
	0.144472
	0.135131
	0.127722
	0.126755
	0.117414
	0.121279
	0.116447
	0.113226
	0.115481
	0.111615
	0.118058
	0.117736
	0.119669
	0.112582
	0.110005
	0.111615
	0.105173
	0.109360
	0.100985
	0.098086
	0.090355
	0.081335
	0.075859
	0.065873
	0.065873
	0.059431
	0.057176
	0.054599
	0.054599
	0.064585
	0.059753
	0.065873
	0.059109
	0.053310
	0.051055
	0.042680
	0.043969
	0.039459
	0.037204
	0.031406
	0.022386
	0.018198
	0.003380
	0.004669
	-0.002096
	-0.002418
	-0.007572
	-0.012726
	-0.006283
	-0.004351
	-0.000485
	-0.001129
	-0.007250
	-0.007894
	-0.012726
	-0.010793
	-0.016914
	-0.019813
	-0.026255
	-0.032376
	-0.031731
	-0.043972
	-0.044617
	-0.052025
	-0.052992
	-0.053636
	-0.057180
	-0.053636
	-0.055247
	-0.044939
	-0.047838
	-0.041717
	-0.041717
	-0.046227
	-0.042684
	-0.046871
	-0.041395
	-0.045261
	-0.043328
	-0.050093
	-0.058468
	-0.059112
	-0.065555
	-0.064911
	-0.070065
	-0.068776
	-0.069098
	-0.071031
	-0.063622
	-0.060723
	-0.051703
	-0.048482
	-0.048160
	-0.048804
	-0.052992
	-0.054603
	-0.056535
	-0.058468
	-0.060401
	-0.068132
	-0.070387
	-0.075541
	-0.078440
	-0.078762
	-0.087782
	-0.088426
	-0.091325
	-0.090359
	-0.089070
	-0.088426
	-0.082628
	-0.081661
	-0.077796
	-0.080695
	-0.080373
	-0.077796
	-0.081339
	-0.079406
	-0.082628
	-0.083272
	-0.084238
	-0.091969
	-0.089392
	-0.095513
	-0.095835
	-0.096157
	-0.098734
	-0.093902
	-0.095191
	-0.081661
	-0.081339
	-0.075219
	-0.073286
	-0.079728
	-0.072642
	-0.076507
	-0.074574
	-0.074897
	-0.079406
	-0.076507
	-0.082628
	-0.082628
	-0.086171
	-0.088748
	-0.088426
	-0.094224
	-0.089392
	-0.092614
	-0.086493
	-0.077151
	-0.077151
	-0.068132
	-0.072320
	-0.070709
	-0.071031
	-0.069420
	-0.070065
	-0.074574
	-0.070709
	-0.075863
	-0.074252
	-0.079406
	-0.082628
	-0.081661
	-0.088426
	-0.083916
	-0.088426
	-0.086815
	-0.082305
	-0.076507
	-0.070387
	-0.068132
	-0.064266
	-0.068132
	-0.066199
	-0.065555
	-0.066521
	-0.064911
	-0.069742
	-0.068776
	-0.072964
	-0.074897
	-0.076829
	-0.078440
	-0.081339
	-0.084238
	-0.082950
	-0.084560
	-0.078440
	-0.072642
	-0.066199
	-0.062978
	-0.062656
	-0.062334
	-0.064266
	-0.061367
	-0.062334
	-0.061689
	-0.063622
	-0.065877
	-0.068132
	-0.073286
	-0.072642
	-0.077474
	-0.076829
	-0.077796
	-0.079728
	-0.077151
	-0.078440
	-0.067165
	-0.064266
	-0.056535
	-0.055891
	-0.059757
	-0.056857
	-0.060401
	-0.056213
	-0.060723
	-0.059434
	-0.062334
	-0.063944
	-0.065877
	-0.072642
	-0.072320
	-0.075541
	-0.075541
	-0.075863
	-0.075541
	-0.071031
	-0.065555
	-0.057502
	-0.054280
	-0.054280
	-0.055247
	-0.056857
	-0.052992
	-0.055569
	-0.054603
	-0.057502
	-0.057824
	-0.060401
	-0.064911
	-0.066521
	-0.071997
	-0.069098
	-0.073608
	-0.071675
	-0.070387
	-0.071031
	-0.060401
	-0.058146
	-0.049126
	-0.050737
	-0.052670
	-0.051059
	-0.054280
	-0.048482
	-0.053314
	-0.051381
	-0.054925
	-0.058146
	-0.059112
	-0.065877
	-0.063300
	-0.068454
	-0.069098
	-0.069098
	-0.071353
	-0.063622
	-0.058790
	-0.052670
	-0.048482
	-0.048160
	-0.048160
	-0.049126
	-0.047194
	-0.046227
	-0.050737
	-0.049448
	-0.053314
	-0.052025
	-0.057824
	-0.058468
	-0.062334
	-0.063944
	-0.063944
	-0.069098
	-0.063944
	-0.063944
	-0.053958
	-0.048804
	-0.045261
	-0.043006
	-0.046549
	-0.043972
	-0.045583
	-0.046227
	-0.046227
	-0.049126
	-0.046871
	-0.052025
	-0.053636
	-0.056535
	-0.059757
	-0.061045
	-0.064911
	-0.062978
	-0.063944
	-0.058790
	-0.050737
	-0.048482
	-0.039785
	-0.042040
	-0.043650
	-0.042362
	-0.043972
	-0.041717
	-0.045905
	-0.043328
	-0.045905
	-0.048482
	-0.050415
	-0.056535
	-0.054925
	-0.060723
	-0.058790
	-0.058468
	-0.058790
	-0.054925
	-0.049448
	-0.042040
	-0.039463
	-0.038174
	-0.038496
	-0.042362
	-0.037852
	-0.040107
	-0.039463
	-0.040107
	-0.045905
	-0.043972
	-0.050093
	-0.050415
	-0.052670
	-0.057824
	-0.054603
	-0.059757
	-0.056213
	-0.052992
	-0.046871
	-0.040429
	-0.037208
	-0.034631
	-0.036241
	-0.039140
	-0.037530
	-0.036563
	-0.037208
	-0.039463
	-0.042684
	-0.043650
	-0.048160
	-0.048160
	-0.052025
	-0.053314
	-0.053636
	-0.056857
	-0.051703
	-0.052025
	-0.043972
	-0.037530
	-0.034631
	-0.031731
	-0.036241
	-0.033020
	-0.033664
	-0.034631
	-0.033986
	-0.040429
	-0.038174
	-0.041073
	-0.044939
	-0.045583
	-0.050737
	-0.048804
	-0.053958
	-0.052348
	-0.050737
	-0.049448
	-0.037852
	-0.038496
	-0.028510
	-0.030765
	-0.031409
	-0.031087
	-0.033664
	-0.030121
	-0.035919
	-0.032376
	-0.036563
	-0.038174
	-0.040107
	-0.047838
	-0.044294
	-0.050415
	-0.048482
	-0.050737
	-0.050093
	-0.045583
	-0.041073
	-0.033020
	-0.028510
	-0.028832
	-0.029799
	-0.030443
	-0.029154
	-0.029154
	-0.032054
	-0.031731
	-0.036241
	-0.034953
	-0.040107
	-0.043650
	-0.043328
	-0.049771
	-0.047194
	-0.051059
	-0.046871
	-0.043006
	-0.037530
	-0.028510
	-0.028510
	-0.024323
	-0.027866
	-0.027544
	-0.027222
	-0.030443
	-0.026900
	-0.032698
	-0.031087
	-0.034953
	-0.037530
	-0.038496
	-0.044617
	-0.042684
	-0.048482
	-0.044294
	-0.045583
	-0.042684
	-0.032698
	-0.033020
	-0.023034
	-0.026255
	-0.025289
	-0.024967
	-0.028188
	-0.024323
	-0.029477
	-0.026900
	-0.029477
	-0.033986
	-0.034953
	-0.042040
	-0.039140
	-0.044617
	-0.044939
	-0.044617
	-0.047516
	-0.039140
	-0.035919
	-0.026255
	-0.021423
	-0.024000
	-0.023678
	-0.024967
	-0.023034
	-0.024967
	-0.027866
	-0.025933
	-0.030121
	-0.029799
	-0.034953
	-0.036885
	-0.039463
	-0.043328
	-0.040429
	-0.046227
	-0.042684
	-0.038174
	-0.033664
	-0.025289
	-0.021745
	-0.019813
	-0.022390
	-0.024323
	-0.022390
	-0.024323
	-0.022712
	-0.024000
	-0.028188
	-0.027866
	-0.033342
	-0.035275
	-0.037208
	-0.039785
	-0.038496
	-0.042362
	-0.039140
	-0.037208
	-0.030443
	-0.022390
	-0.022068
	-0.017880
	-0.024000
	-0.020779
	-0.019491
	-0.022712
	-0.020779
	-0.027866
	-0.022390
	-0.027544
	-0.030765
	-0.033664
	-0.038496
	-0.036563
	-0.041717
	-0.039140
	-0.038174
	-0.036241
	-0.025611
	-0.025289
	-0.015947
	-0.016914
	-0.020779
	-0.019813
	-0.020457
	-0.018846
	-0.020779
	-0.023678
	-0.022712
	-0.026900
	-0.029154
	-0.031409
	-0.037208
	-0.036563
	-0.039785
	-0.039463
	-0.035919
	-0.034631
	-0.024323
	-0.023356
	-0.015625
	-0.015625
	-0.019491
	-0.016269
	-0.020457
	-0.016914
	-0.020457
	-0.020457
	-0.021745
	-0.026577
	-0.026900
	-0.033342
	-0.032698
	-0.035597
	-0.038174
	-0.035597
	-0.038818
	-0.030443
	-0.025611
	-0.019491
	-0.012726
	-0.016914
	-0.015625
	-0.018846
	-0.014337
	-0.016269
	-0.019168
	-0.018202
	-0.023678
	-0.021745
	-0.030443
	-0.030121
	-0.032698
	-0.036563
	-0.034631
	-0.039140
	-0.032698
	-0.033342
	-0.022390
	-0.018846
	-0.014014
	-0.012404
	-0.017236
	-0.014337
	-0.015303
	-0.014014
	-0.016269
	-0.019491
	-0.018846
	-0.024323
	-0.024645
	-0.030765
	-0.031087
	-0.033020
	-0.037208
	-0.034308
	-0.036563
	-0.026900
	-0.022390
	-0.017558
	-0.011760
	-0.015625
	-0.012082
	-0.016591
	-0.012726
	-0.014014
	-0.015947
	-0.015947
	-0.020135
	-0.020135
	-0.022390
	-0.022390
	-0.020135
	-0.024967
	-0.018202
	-0.018846
	-0.012082
	-0.003384
	0.007568
	0.016910
	0.022386
	0.022708
	0.026574
	0.026574
	0.036237
	0.035915
	0.036560
	0.037848
	0.037848
	0.041714
	0.040747
	0.041392
	0.041392
	0.037848
	0.044291
	0.042036
	0.052344
	0.058464
	0.069094
	0.079403
	0.085201
	0.094220
	0.092610
	0.099697
	0.104529
	0.106461
	0.111937
	0.107106
	0.110005
	0.107750
	0.110005
	0.109038
	0.103562
	0.109360
	0.106139
	0.109360
	0.110649
	0.116769
	0.128366
	0.129332
	0.137708
	0.135453
	0.135131
	0.136741
	0.131909
	0.131587
	0.121923
	0.119024
	0.112904
	0.101952
	0.099697
	0.089711
	0.090355
	0.081980
	0.077470
	0.072960
	0.065873
	0.067806
	0.066840
	0.069094
	0.069417
	0.063618
	0.056854
	0.044935
	0.044613
	0.035271
	0.030761
	0.024963
	0.012400
	0.011756
	-0.000485
	-0.005317
	-0.015625
	-0.027866
	-0.030765
	-0.040107
	-0.041073
	-0.043006
	-0.039463
	-0.038496
	-0.042040
	-0.041073
	-0.052670
	-0.052348
	-0.053636
	-0.055891
	-0.058790
	-0.067165
	-0.070387
	-0.077474
	-0.086171
	-0.091647
	-0.101955
	-0.101955
	-0.107431
	-0.107109
	-0.109686
	-0.112908
	-0.105177
	-0.107754
	-0.099056
	-0.105499
	-0.108076
	-0.109042
	-0.112263
	-0.108076
	-0.116129
	-0.109364
	-0.108720
	-0.108398
	-0.110331
	-0.116773
	-0.114196
	-0.115162
	-0.110008
	-0.107109
	-0.100667
	-0.091647
	-0.082628
	-0.062334
	-0.050093
	-0.026900
	-0.017558
	0.121279
	0.202455
	0.415704
	0.539402
	0.766502
	0.895676
	1.088954
	1.191069
	1.305425
	1.356966
	1.397555
	1.408185
	1.411728
	1.391756
	1.339893
	1.287386
	1.202022
	1.141139
	1.052553
	0.984262
	0.903085
	0.840270
	0.774878
	0.700466
	0.632497
	0.551965
	0.488505
	0.405396
	0.334850
	0.260761
	0.196979
	0.126433
	0.070383
	0.025285
	-0.002418
	-0.033986
	-0.047516
	-0.083916
	-0.102922
	-0.155106
	-0.182487
	-0.226941
	-0.256576
	-0.285890
	-0.305862
	-0.335820
	-0.349671
	-0.361912
	-0.361590
	-0.359013
	-0.349027
	-0.330021
	-0.317458
	-0.292332
	-0.279125
	-0.244336
	-0.229196
	-0.210512
	-0.199560
	-0.195050
	-0.181521
	-0.174112
	-0.165092
	-0.162193
	-0.159294
	-0.152207
	-0.155428
	-0.149308
	-0.153173
	-0.151885
	-0.149630
	-0.150274
	-0.141899
	-0.139644
	-0.132879
	-0.124826
	-0.119028
	-0.110653
	-0.110975
	-0.107431
	-0.107754
	-0.105177
	-0.104210
	-0.107754
	-0.101311
	-0.104210
	-0.101633
	-0.105821
	-0.105821
	-0.107109
	-0.112263
	-0.110653
	-0.114196
	-0.111297
	-0.110008
	-0.100022
	-0.094868
	-0.091003
	-0.089714
	-0.093580
	-0.089392
	-0.090037
	-0.089392
	-0.090359
	-0.093580
	-0.093258
	-0.097123
	-0.098090
	-0.102599
	-0.105821
	-0.105821
	-0.105499
	-0.099700
	-0.099056
	-0.093258
	-0.084882
	-0.082628
	-0.074574
	-0.077151
	-0.075541
	-0.076829
	-0.071675
	-0.069420
	-0.071997
	-0.069742
	-0.069420
	-0.065555
	-0.068132
	-0.071997
	-0.072320
	-0.076829
	-0.069742
	-0.068776
	-0.067810
	-0.062334
	-0.055247
	-0.048804
	-0.044294
	-0.047838
	-0.045583
	-0.045261
	-0.040429
	-0.038496
	-0.039785
	-0.035919
	-0.037208
	-0.034631
	-0.038174
	-0.039140
	-0.033664
	-0.038818
	-0.036563
	-0.038496
	-0.038496
	-0.028188
	-0.022712
	-0.012082
	-0.008860
	-0.004995
	-0.001774
	-0.004028
	0.001126
	-0.000485
	-0.003384
	0.003058
	-0.000163
	0.003380
	-0.003384
	0.000481
	0.002092
	0.002414
	0.008534
	0.009501
	0.016266
	0.026252
	0.031406
	0.039781
	0.045257
	0.050089
	0.052022
	0.055565
	0.061686
	0.062652
	0.067806
	0.072316
	0.069094
	0.070061
	0.068128
	0.068772
	0.072316
	0.071349
	0.077148
	0.078114
	0.081013
	0.087456
	0.095187
	0.104851
	0.110649
	0.116769
	0.120313
	0.121601
	0.129655
	0.129655
	0.132232
	0.129655
	0.130621
	0.134486
	0.127400
	0.129655
	0.129655
	0.128044
	0.129655
	0.124178
	0.130621
	0.132232
	0.136741
	0.145761
	0.148982
	0.154780
	0.152203
	0.151881
	0.154780
	0.149304
	0.152848
	0.148982
	0.147372
	0.145117
	0.136097
	0.140929
	0.138352
	0.139318
	0.138352
	0.133520
	0.138674
	0.141251
	0.146083
	0.150915
	0.151559
	0.157358
	0.153492
	0.153492
	0.152526
	0.150593
	0.150271
	0.148982
	0.146083
	0.139963
	0.130943
	0.127722
	0.125467
	0.121279
	0.122246
	0.112904
	0.114192
	0.110971
	0.113548
	0.117736
	0.117414
	0.117414
	0.111293
	0.109683
	0.112582
	0.107106
	0.108716
	0.100341
	0.095509
	0.089389
	0.077470
	0.073926
	0.068772
	0.064263
	0.060397
	0.052666
	0.055887
	0.055565
	0.062652
	0.060719
	0.059431
	0.058142
	0.048156
	0.048478
	0.045579
	0.043646
	0.040747
	0.032694
	0.028506
	0.021742
	0.011112
	0.006280
	0.001770
	0.001126
	-0.005317
	-0.010149
	-0.008860
	-0.007572
	-0.004028
	-0.002740
	-0.003384
	-0.005639
	-0.010793
	-0.009183
	-0.014014
	-0.019813
	-0.023034
	-0.029799
	-0.029477
	-0.034953
	-0.043650
	-0.044939
	-0.052992
	-0.051703
	-0.055247
	-0.054280
	-0.051381
	-0.053958
	-0.046549
	-0.046549
	-0.039785
	-0.039463
	-0.044939
	-0.040751
	-0.043972
	-0.040429
	-0.043650
	-0.050093
	-0.050093
	-0.058468
	-0.057502
	-0.063300
	-0.064588
	-0.065555
	-0.071031
	-0.067810
	-0.070387
	-0.061367
	-0.053636
	-0.053958
	-0.045261
	-0.048804
	-0.046871
	-0.053314
	-0.056535
	-0.054280
	-0.060723
	-0.061367
	-0.067165
	-0.070065
	-0.073286
	-0.079406
	-0.081661
	-0.087782
	-0.091003
	-0.091003
	-0.094868
	-0.091325
	-0.086493
	-0.084560
	-0.079084
	-0.080051
	-0.079406
	-0.078440
	-0.079728
	-0.078440
	-0.082305
	-0.080373
	-0.081661
	-0.085205
	-0.085205
	-0.091647
	-0.090681
	-0.093902
	-0.095835
	-0.094868
	-0.099378
	-0.088748
	-0.082950
	-0.079728
	-0.070387
	-0.076507
	-0.072642
	-0.074897
	-0.075863
	-0.072320
	-0.078118
	-0.074252
	-0.077796
	-0.080695
	-0.080373
	-0.091325
	-0.083594
	-0.089714
	-0.088748
	-0.089714
	-0.091325
	-0.083594
	-0.079084
	-0.071675
	-0.067810
	-0.068454
	-0.070065
	-0.071675
	-0.067488
	-0.068776
	-0.071353
	-0.071031
	-0.073930
	-0.072964
	-0.079728
	-0.080051
	-0.081661
	-0.088748
	-0.083272
	-0.087782
	-0.084238
	-0.078762
	-0.073608
	-0.067810
	-0.066843
	-0.063300
	-0.066843
	-0.066521
	-0.062978
	-0.067488
	-0.064911
	-0.068132
	-0.069420
	-0.069742
	-0.076507
	-0.075541
	-0.080695
	-0.079728
	-0.080695
	-0.084238
	-0.079728
	-0.079728
	-0.067488
	-0.066199
	-0.058468
	-0.058146
	-0.064911
	-0.059434
	-0.063300
	-0.059434
	-0.062334
	-0.062656
	-0.063300
	-0.069098
	-0.069098
	-0.074574
	-0.074252
	-0.076829
	-0.079084
	-0.077796
	-0.077151
	-0.072642
	-0.064266
	-0.063300
	-0.055891
	-0.055247
	-0.059757
	-0.055569
	-0.058146
	-0.056535
	-0.057824
	-0.059434
	-0.059434
	-0.066199
	-0.065233
	-0.069098
	-0.071675
	-0.070709
	-0.077151
	-0.072964
	-0.074252
	-0.071031
	-0.060079
	-0.060401
	-0.050415
	-0.053314
	-0.053314
	-0.052992
	-0.055247
	-0.052025
	-0.054603
	-0.055891
	-0.056535
	-0.061367
	-0.062334
	-0.066843
	-0.067810
	-0.068454
	-0.071353
	-0.069742
	-0.071031
	-0.064266
	-0.056857
	-0.056535
	-0.046871
	-0.051381
	-0.050737
	-0.049771
	-0.051703
	-0.047838
	-0.053314
	-0.050415
	-0.054925
	-0.056213
	-0.057824
	-0.064911
	-0.062334
	-0.067488
	-0.065555
	-0.066521
	-0.068776
	-0.060401
	-0.058468
	-0.048160
	-0.046227
	-0.044294
	-0.046549
	-0.048482
	-0.044617
	-0.046871
	-0.046549
	-0.048160
	-0.052025
	-0.052025
	-0.057824
	-0.058146
	-0.061045
	-0.064266
	-0.063300
	-0.066843
	-0.062656
	-0.058468
	-0.053636
	-0.045261
	-0.045583
	-0.041395
	-0.044294
	-0.044294
	-0.042684
	-0.045583
	-0.042684
	-0.049448
	-0.046227
	-0.050415
	-0.054280
	-0.055247
	-0.060079
	-0.059434
	-0.063622
	-0.060723
	-0.061045
	-0.057502
	-0.048160
	-0.047838
	-0.037530
	-0.040751
	-0.041395
	-0.040429
	-0.042040
	-0.038818
	-0.043972
	-0.041073
	-0.046227
	-0.047516
	-0.049771
	-0.055569
	-0.053958
	-0.061367
	-0.057502
	-0.060079
	-0.056535
	-0.052670
	-0.048160
	-0.041073
	-0.037530
	-0.034953
	-0.037852
	-0.038496
	-0.036885
	-0.039785
	-0.037530
	-0.040751
	-0.041395
	-0.043328
	-0.050415
	-0.050737
	-0.053958
	-0.054280
	-0.055569
	-0.057180
	-0.054603
	-0.053636
	-0.042040
	-0.039463
	-0.035597
	-0.031409
	-0.038818
	-0.033664
	-0.037852
	-0.033342
	-0.036563
	-0.039140
	-0.039140
	-0.043972
	-0.043972
	-0.049448
	-0.048804
	-0.052025
	-0.054925
	-0.051703
	-0.056213
	-0.046227
	-0.042362
	-0.037208
	-0.030121
	-0.034631
	-0.032054
	-0.035919
	-0.031087
	-0.032698
	-0.034953
	-0.033664
	-0.039140
	-0.037208
	-0.043006
	-0.045261
	-0.046549
	-0.051059
	-0.049448
	-0.052025
	-0.049448
	-0.042684
	-0.039463
	-0.033664
	-0.030443
	-0.027866
	-0.030443
	-0.029154
	-0.028832
	-0.031409
	-0.029799
	-0.034308
	-0.033020
	-0.037208
	-0.041073
	-0.042362
	-0.048160
	-0.045583
	-0.050737
	-0.048804
	-0.047516
	-0.043972
	-0.034631
	-0.034953
	-0.025933
	-0.027866
	-0.029477
	-0.026577
	-0.031087
	-0.026255
	-0.032376
	-0.031409
	-0.031409
	-0.037530
	-0.037852
	-0.044617
	-0.041717
	-0.046227
	-0.047838
	-0.045905
	-0.049448
	-0.039463
	-0.035275
	-0.027866
	-0.024645
	-0.026900
	-0.025289
	-0.027544
	-0.027866
	-0.025933
	-0.029799
	-0.029477
	-0.031731
	-0.033342
	-0.035597
	-0.041073
	-0.040751
	-0.044617
	-0.044294
	-0.042684
	-0.046549
	-0.037530
	-0.034631
	-0.028188
	-0.023034
	-0.024000
	-0.023356
	-0.025611
	-0.023356
	-0.024967
	-0.026255
	-0.024000
	-0.029154
	-0.028832
	-0.036885
	-0.036563
	-0.040429
	-0.040429
	-0.041073
	-0.046227
	-0.041717
	-0.040429
	-0.031409
	-0.026255
	-0.022068
	-0.020135
	-0.026900
	-0.020135
	-0.025289
	-0.022068
	-0.024645
	-0.025611
	-0.025611
	-0.033342
	-0.032376
	-0.036885
	-0.039140
	-0.038174
	-0.045583
	-0.040107
	-0.042362
	-0.035275
	-0.028510
	-0.027222
	-0.018524
	-0.023356
	-0.020457
	-0.022068
	-0.020135
	-0.020779
	-0.026255
	-0.021745
	-0.027222
	-0.026900
	-0.032054
	-0.035597
	-0.035597
	-0.041395
	-0.038496
	-0.041717
	-0.037852
	-0.033020
	-0.030121
	-0.023034
	-0.019491
	-0.016591
	-0.020135
	-0.020457
	-0.017880
	-0.021745
	-0.020457
	-0.024323
	-0.022712
	-0.025289
	-0.031409
	-0.032054
	-0.036885
	-0.036885
	-0.038496
	-0.039785
	-0.037852
	-0.035597
	-0.024323
	-0.022068
	-0.019168
	-0.016591
	-0.019491
	-0.017880
	-0.017880
	-0.019491
	-0.019813
	-0.022712
	-0.022390
	-0.024645
	-0.029154
	-0.029477
	-0.033342
	-0.035275
	-0.037852
	-0.037208
	-0.036885
	-0.032376
	-0.023678
	-0.022068
	-0.014659
	-0.015303
	-0.017236
	-0.017236
	-0.017558
	-0.017558
	-0.020457
	-0.018846
	-0.021101
	-0.022390
	-0.025933
	-0.030443
	-0.030443
	-0.035919
	-0.033342
	-0.036241
	-0.034308
	-0.030121
	-0.024000
	-0.018202
	-0.015625
	-0.013370
	-0.015947
	-0.015625
	-0.015303
	-0.017880
	-0.017236
	-0.019168
	-0.018846
	-0.024645
	-0.024645
	-0.028510
	-0.030443
	-0.033020
	-0.037208
	-0.034308
	-0.035275
	-0.028188
	-0.021745
	-0.019491
	-0.011437
	-0.015303
	-0.014337
	-0.016269
	-0.012726
	-0.014659
	-0.018524
	-0.014981
	-0.021423
	-0.019168
	-0.025933
	-0.027222
	-0.028188
	-0.034953
	-0.031731
	-0.036563
	-0.030121
	-0.029154
	-0.020779
	-0.015303
	-0.013048
	-0.010471
	-0.015947
	-0.010793
	-0.013370
	-0.012726
	-0.014337
	-0.018202
	-0.017236
	-0.018202
	-0.016914
	-0.017880
	-0.021423
	-0.017558
	-0.019168
	-0.011437
	-0.008860
	0.003058
	0.013689
	0.016910
	0.025607
	0.028184
	0.028506
	0.036237
	0.034949
	0.039137
	0.036882
	0.042680
	0.045257
	0.043969
	0.046546
	0.041714
	0.041069
	0.043646
	0.042680
	0.051055
	0.051700
	0.064585
	0.074571
	0.081335
	0.094220
	0.092610
	0.100663
	0.103884
	0.106783
	0.112904
	0.109360
	0.113548
	0.112260
	0.113548
	0.111937
	0.107106
	0.111293
	0.108394
	0.110971
	0.109360
	0.112904
	0.122568
	0.125789
	0.132554
	0.139640
	0.136741
	0.136097
	0.134486
	0.130943
	0.127400
	0.118380
	0.118380
	0.105173
	0.103884
	0.095831
	0.092610
	0.087456
	0.076826
	0.073926
	0.067806
	0.063940
	0.066517
	0.063296
	0.068450
	0.063296
	0.061041
	0.048800
	0.042358
	0.038492
	0.028506
	0.027540
	0.019809
	0.013689
	0.008534
	-0.002418
	-0.011115
	-0.025933
	-0.028188
	-0.037530
	-0.043650
	-0.044294
	-0.049126
	-0.040429
	-0.045583
	-0.040107
	-0.047516
	-0.054280
	-0.051703
	-0.053636
	-0.057180
	-0.061689
	-0.071353
	-0.072320
	-0.084238
	-0.088426
	-0.096479
	-0.102277
	-0.105499
	-0.108076
	-0.111619
	-0.111619
	-0.115162
	-0.106787
	-0.107109
	-0.100022
	-0.105177
	-0.112263
	-0.108076
	-0.112585
	-0.108398
	-0.109042
	-0.104854
	-0.104210
	-0.107754
	-0.108076
	-0.114840
	-0.110331
	-0.109364
	-0.106465
	-0.101311
	-0.100022
	-0.084560
	-0.069098
	-0.053314
	-0.027544
	-0.018202
	0.106139
	0.185060
	0.398631
	0.518141
	0.747497
	0.874738
	1.070593
	1.180439
	1.294473
	1.354711
	1.395300
	1.407863
	1.411406
	1.396588
	1.344403
	1.299627
	1.211363
	1.151769
	1.057063
	0.996181
	0.910172
	0.849934
	0.780676
	0.716572
	0.640228
	0.571292
	0.494626
	0.423435
	0.343870
	0.273968
	0.208898
	0.135775
	0.077470
	0.026574
	-0.001451
	-0.031409
	-0.051381
	-0.079728
	-0.105499
	-0.146409
	-0.180554
	-0.225652
	-0.248845
	-0.284601
	-0.299419
	-0.330666
	-0.346772
	-0.352892
	-0.362878
	-0.353214
	-0.352570
	-0.331310
	-0.318747
	-0.299419
	-0.279447
	-0.257221
	-0.231450
	-0.213733
	-0.203425
	-0.189574
	-0.188285
	-0.171213
	-0.167025
	-0.161549
	-0.155751
	-0.154784
	-0.148664
	-0.148019
	-0.147053
	-0.148986
	-0.151563
	-0.145442
	-0.145120
	-0.137711
	-0.136423
	-0.132235
	-0.122249
	-0.119350
	-0.107754
	-0.106143
	-0.106787
	-0.105177
	-0.106143
	-0.103888
	-0.101311
	-0.099700
	-0.099056
	-0.102277
	-0.103566
	-0.108720
	-0.107754
	-0.110975
	-0.114840
	-0.112585
	-0.110653
	-0.105499
	-0.096801
	-0.096479
	-0.088426
	-0.090681
	-0.091003
	-0.087782
	-0.091969
	-0.088104
	-0.092936
	-0.090681
	-0.091003
	-0.097123
	-0.098090
	-0.104210
	-0.102277
	-0.101955
	-0.100667
	-0.097768
	-0.098412
	-0.090681
	-0.085205
	-0.078762
	-0.072964
	-0.077474
	-0.075219
	-0.074574
	-0.068132
	-0.069098
	-0.067488
	-0.063944
	-0.065555
	-0.063944
	-0.070709
	-0.069420
	-0.072964
	-0.070709
	-0.067165
	-0.070065
	-0.064266
	-0.063622
	-0.052348
	-0.049771
	-0.046549
	-0.042362
	-0.047838
	-0.039140
	-0.039140
	-0.038174
	-0.036241
	-0.035597
	-0.031409
	-0.036885
	-0.036885
	-0.034631
	-0.037530
	-0.035919
	-0.040751
	-0.036563
	-0.033020
	-0.026577
	-0.015303
	-0.014981
	-0.003384
	-0.002740
	-0.001129
	0.000803
	-0.003384
	0.001126
	-0.000163
	0.002092
	0.004025
	-0.001774
	0.003058
	0.000159
	0.006602
	0.007246
	0.009823
	0.014655
	0.019487
	0.029473
	0.036237
	0.040425
	0.050411
	0.049123
	0.057176
	0.059109
	0.064585
	0.067806
	0.069739
	0.074249
	0.070383
	0.069739
	0.072638
	0.070061
	0.074249
	0.075859
	0.080047
	0.082946
	0.078436
	0.090677
	0.098730
	0.106139
	0.118380
	0.117092
	0.124500
	0.126755
	0.131909
	0.134809
	0.130621
	0.136741
	0.131265
	0.134486
	0.129655
	0.129977
	0.132876
	0.125789
	0.131265
	0.127400
	0.127400
	0.133198
	0.136097
	0.147372
	0.150271
	0.155747
	0.152203
	0.152203
	0.155103
	0.148982
	0.152848
	0.147372
	0.148016
	0.143184
	0.139963
	0.143184
	0.138352
	0.140607
	0.137386
	0.138352
	0.139318
	0.139963
	0.150915
	0.147694
	0.156713
	0.154458
	0.153170
	0.154136
	0.150271
	0.153814
	0.148660
	0.150271
	0.144472
	0.134164
	0.131587
	0.126433
	0.125467
	0.122890
	0.115159
	0.115481
	0.107106
	0.109360
	0.113548
	0.114515
	0.117092
	0.113870
	0.110327
	0.113226
	0.109038
	0.110327
	0.102274
	0.098408
	0.092610
	0.081335
	0.075215
	0.068450
	0.066195
	0.062974
	0.055243
	0.055565
	0.052988
	0.056532
	0.058142
	0.055887
	0.059431
	0.050411
	0.049445
	0.044935
	0.044291
	0.042036
	0.032694
	0.031083
	0.024641
	0.016588
	0.011434
	0.001448
	0.004025
	-0.004673
	-0.009183
	-0.008538
	-0.012404
	-0.006928
	-0.005317
	-0.006606
	-0.004351
	-0.008538
	-0.006928
	-0.013692
	-0.016269
	-0.020779
	-0.027544
	-0.026900
	-0.032698
	-0.039140
	-0.043650
	-0.049126
	-0.048160
	-0.053636
	-0.053958
	-0.052670
	-0.055569
	-0.053636
	-0.049771
	-0.043972
	-0.038174
	-0.043006
	-0.042040
	-0.044294
	-0.040429
	-0.041717
	-0.046227
	-0.048482
	-0.056535
	-0.055247
	-0.059757
	-0.062978
	-0.063944
	-0.070709
	-0.066199
	-0.067488
	-0.066843
	-0.062334
	-0.058146
	-0.049771
	-0.046227
	-0.046549
	-0.051059
	-0.056857
	-0.054925
	-0.056857
	-0.063944
	-0.064911
	-0.071031
	-0.069742
	-0.074897
	-0.079084
	-0.084238
	-0.092291
	-0.089714
	-0.094546
	-0.096157
	-0.090681
	-0.089070
	-0.079084
	-0.078762
	-0.076829
	-0.077474
	-0.080373
	-0.077151
	-0.080373
	-0.078118
	-0.081983
	-0.083272
	-0.083272
	-0.091969
	-0.088426
	-0.094224
	-0.093258
	-0.093580
	-0.096801
	-0.092291
	-0.091969
	-0.078440
	-0.077151
	-0.071997
	-0.071997
	-0.075863
	-0.072320
	-0.076185
	-0.073286
	-0.073930
	-0.075541
	-0.075541
	-0.082628
	-0.082305
	-0.086493
	-0.088426
	-0.087782
	-0.092614
	-0.090037
	-0.089392
	-0.084882
	-0.074897
	-0.073286
	-0.066843
	-0.067810
	-0.071675
	-0.068132
	-0.070065
	-0.069098
	-0.067488
	-0.072642
	-0.070709
	-0.074574
	-0.079084
	-0.080695
	-0.084882
	-0.083916
	-0.086493
	-0.086815
	-0.082628
	-0.082628
	-0.071031
	-0.068132
	-0.063300
	-0.061689
	-0.068454
	-0.063300
	-0.064911
	-0.066521
	-0.064911
	-0.073608
	-0.069420
	-0.072964
	-0.076185
	-0.077796
	-0.082628
	-0.079728
	-0.082628
	-0.082305
	-0.079728
	-0.078118
	-0.066199
	-0.064911
	-0.058790
	-0.058790
	-0.063944
	-0.062656
	-0.064266
	-0.061689
	-0.062978
	-0.065233
	-0.064266
	-0.067810
	-0.069742
	-0.071675
	-0.076507
	-0.075541
	-0.080051
	-0.077474
	-0.077151
	-0.070709
	-0.063944
	-0.062334
	-0.054925
	-0.055891
	-0.057180
	-0.055569
	-0.057502
	-0.055891
	-0.059112
	-0.058790
	-0.059757
	-0.063944
	-0.066199
	-0.071031
	-0.069420
	-0.074574
	-0.072964
	-0.073930
	-0.074252
	-0.066521
	-0.060401
	-0.056213
	-0.050093
	-0.052670
	-0.050737
	-0.054280
	-0.052025
	-0.052670
	-0.055891
	-0.054603
	-0.060401
	-0.058790
	-0.063300
	-0.064911
	-0.065233
	-0.072320
	-0.070709
	-0.072964
	-0.069742
	-0.062656
	-0.058790
	-0.051059
	-0.047516
	-0.048160
	-0.050415
	-0.051059
	-0.048804
	-0.050093
	-0.052670
	-0.050415
	-0.055891
	-0.054925
	-0.059434
	-0.063300
	-0.062334
	-0.068776
	-0.065233
	-0.066843
	-0.066199
	-0.058468
	-0.055891
	-0.046871
	-0.045261
	-0.044617
	-0.046549
	-0.049448
	-0.044294
	-0.047194
	-0.046871
	-0.047838
	-0.051381
	-0.052348
	-0.057502
	-0.059112
	-0.059112
	-0.062978
	-0.062656
	-0.067810
	-0.061045
	-0.057502
	-0.050093
	-0.043972
	-0.044617
	-0.038818
	-0.046227
	-0.042362
	-0.042684
	-0.047516
	-0.045261
	-0.048804
	-0.047838
	-0.050737
	-0.053636
	-0.055891
	-0.062011
	-0.060079
	-0.063944
	-0.062334
	-0.059112
	-0.057824
	-0.046549
	-0.043972
	-0.038818
	-0.038818
	-0.043650
	-0.039463
	-0.040429
	-0.039785
	-0.040107
	-0.045905
	-0.043972
	-0.048804
	-0.048804
	-0.052348
	-0.059434
	-0.055247
	-0.061367
	-0.056535
	-0.056857
	-0.054925
	-0.042684
	-0.043006
	-0.034953
	-0.036563
	-0.040429
	-0.037208
	-0.039140
	-0.038496
	-0.038496
	-0.042684
	-0.042362
	-0.044939
	-0.048804
	-0.050093
	-0.054280
	-0.054280
	-0.056535
	-0.057502
	-0.052992
	-0.052025
	-0.041395
	-0.039463
	-0.033664
	-0.032376
	-0.038818
	-0.034631
	-0.038174
	-0.034631
	-0.036563
	-0.039785
	-0.039140
	-0.045261
	-0.044617
	-0.048482
	-0.051059
	-0.052670
	-0.056213
	-0.052348
	-0.051703
	-0.046227
	-0.038818
	-0.037852
	-0.031409
	-0.032698
	-0.032376
	-0.032698
	-0.034953
	-0.031731
	-0.036885
	-0.035919
	-0.037530
	-0.039463
	-0.041717
	-0.047838
	-0.046871
	-0.052992
	-0.051059
	-0.049448
	-0.051059
	-0.043328
	-0.040107
	-0.033664
	-0.029477
	-0.031409
	-0.030443
	-0.034631
	-0.029154
	-0.031087
	-0.032054
	-0.032054
	-0.037208
	-0.035919
	-0.043006
	-0.043006
	-0.045583
	-0.048482
	-0.047194
	-0.051059
	-0.046871
	-0.042040
	-0.035597
	-0.030443
	-0.028832
	-0.026900
	-0.029799
	-0.030121
	-0.027544
	-0.032054
	-0.027866
	-0.033986
	-0.032698
	-0.034631
	-0.042362
	-0.040429
	-0.047516
	-0.044294
	-0.048160
	-0.047194
	-0.044294
	-0.042684
	-0.031731
	-0.032054
	-0.024967
	-0.025611
	-0.030121
	-0.026255
	-0.028832
	-0.025611
	-0.027866
	-0.031087
	-0.030443
	-0.034308
	-0.036563
	-0.039785
	-0.043328
	-0.043972
	-0.045261
	-0.045905
	-0.043006
	-0.040107
	-0.029799
	-0.028832
	-0.023678
	-0.022068
	-0.027866
	-0.023356
	-0.026577
	-0.024967
	-0.024967
	-0.028832
	-0.025933
	-0.034308
	-0.034308
	-0.036885
	-0.042362
	-0.041395
	-0.046227
	-0.042362
	-0.042040
	-0.036885
	-0.029154
	-0.028832
	-0.019168
	-0.023678
	-0.023034
	-0.023678
	-0.024967
	-0.022390
	-0.024645
	-0.024645
	-0.026255
	-0.031087
	-0.032698
	-0.038496
	-0.037208
	-0.040429
	-0.042040
	-0.040107
	-0.040107
	-0.033342
	-0.027222
	-0.025611
	-0.018524
	-0.021745
	-0.021745
	-0.020135
	-0.022068
	-0.021101
	-0.025611
	-0.024000
	-0.025289
	-0.029799
	-0.031731
	-0.037208
	-0.035275
	-0.037530
	-0.042362
	-0.037852
	-0.039463
	-0.031731
	-0.025611
	-0.026255
	-0.016914
	-0.021101
	-0.019813
	-0.019168
	-0.022390
	-0.018524
	-0.021101
	-0.022712
	-0.022712
	-0.027544
	-0.029477
	-0.032054
	-0.035919
	-0.037208
	-0.040107
	-0.038496
	-0.035919
	-0.033020
	-0.024323
	-0.023034
	-0.015625
	-0.016269
	-0.022068
	-0.017880
	-0.021101
	-0.018846
	-0.019168
	-0.024323
	-0.022712
	-0.026900
	-0.028188
	-0.031409
	-0.035919
	-0.034631
	-0.038174
	-0.037530
	-0.034631
	-0.032698
	-0.022068
	-0.019813
	-0.018202
	-0.014981
	-0.019168
	-0.017236
	-0.015947
	-0.019168
	-0.017880
	-0.021101
	-0.021101
	-0.024323
	-0.028832
	-0.028188
	-0.034308
	-0.034631
	-0.036563
	-0.035597
	-0.032698
	-0.031409
	-0.020457
	-0.020135
	-0.014337
	-0.013370
	-0.018524
	-0.013692
	-0.016591
	-0.017880
	-0.017558
	-0.022068
	-0.018846
	-0.024000
	-0.027222
	-0.028510
	-0.034953
	-0.032054
	-0.035275
	-0.033664
	-0.033342
	-0.029154
	-0.020779
	-0.018202
	-0.012726
	-0.012726
	-0.016591
	-0.014014
	-0.013370
	-0.015303
	-0.014014
	-0.019168
	-0.017880
	-0.021101
	-0.027866
	-0.026255
	-0.032376
	-0.032054
	-0.030765
	-0.035597
	-0.030121
	-0.027544
	-0.018524
	-0.014659
	-0.013370
	-0.010149
	-0.015625
	-0.013048
	-0.012082
	-0.016591
	-0.012404
	-0.016914
	-0.016269
	-0.012404
	-0.019813
	-0.017236
	-0.017880
	-0.019168
	-0.011437
	-0.011760
	-0.000485
	0.008534
	0.014333
	0.020453
	0.027540
	0.030761
	0.034305
	0.034949
	0.041069
	0.037204
	0.043969
	0.044291
	0.045579
	0.048800
	0.044613
	0.043002
	0.046546
	0.044613
	0.051700
	0.052988
	0.057820
	0.069094
	0.078436
	0.085523
	0.097120
	0.094220
	0.103562
	0.104529
	0.110005
	0.113870
	0.109038
	0.114515
	0.114192
	0.111293
	0.111293
	0.106461
	0.111615
	0.110005
	0.107750
	0.112904
	0.113870
	0.123212
	0.129010
	0.129010
	0.137063
	0.134164
	0.135131
	0.131587
	0.126111
	0.122890
	0.114837
	0.110971
	0.102918
	0.099052
	0.094865
	0.085845
	0.082946
	0.073282
	0.069417
	0.062974
	0.059431
	0.060397
	0.061686
	0.062330
	0.060719
	0.048478
	0.044613
	0.036560
	0.033338
	0.029151
	0.018843
	0.017232
	0.005635
	0.001126
	-0.007572
	-0.023356
	-0.027544
	-0.038174
	-0.041073
	-0.045905
	-0.050737
	-0.046549
	-0.048482
	-0.044939
	-0.044939
	-0.053314
	-0.052348
	-0.055247
	-0.056857
	-0.060401
	-0.069742
	-0.071353
	-0.082628
	-0.083272
	-0.093902
	-0.101955
	-0.100989
	-0.107754
	-0.110975
	-0.112908
	-0.118706
	-0.114840
	-0.109042
	-0.105177
	-0.104532
	-0.110975
	-0.109686
	-0.110331
	-0.110653
	-0.107431
	-0.109042
	-0.103566
	-0.108398
	-0.109042
	-0.109042
	-0.114196
	-0.107754
	-0.107754
	-0.104532
	-0.098090
	-0.096801
	-0.074252
	-0.058790
	-0.037530
	-0.015947
	0.084879
	0.181517
	0.367385
	0.509121
	0.718827
	0.857665
	1.052231
	1.166265
	1.288352
	1.348591
	1.391434
	1.412695
	1.411084
	1.407219
	1.346980
	1.309291
	1.220705
	1.162722
	1.063828
	1.007455
	0.916292
	0.862819
	0.785186
	0.732679
	0.646348
	0.582567
	0.505256
	0.434710
	0.355144
	0.287175
	0.214052
	0.152848
	0.079080
	0.038170
	-0.003706
	-0.032698
	-0.052670
	-0.083916
	-0.102599
	-0.141899
	-0.174434
	-0.217599
	-0.249167
	-0.275904
	-0.302318
	-0.324867
	-0.347094
	-0.352248
	-0.357080
	-0.357724
	-0.351604
	-0.335820
	-0.321324
	-0.298775
	-0.288789
	-0.259475
	-0.245302
	-0.218565
	-0.209546
	-0.189896
	-0.184098
	-0.177655
	-0.167669
	-0.162515
	-0.155751
	-0.152851
	-0.151241
	-0.146087
	-0.149308
	-0.147697
	-0.148986
	-0.145442
	-0.142543
	-0.141577
	-0.137389
	-0.137389
	-0.127081
	-0.120317
	-0.115485
	-0.104854
	-0.106787
	-0.106143
	-0.104210
	-0.106143
	-0.100022
	-0.101633
	-0.097445
	-0.100345
	-0.101311
	-0.103566
	-0.109686
	-0.109042
	-0.111297
	-0.112585
	-0.110975
	-0.114196
	-0.102277
	-0.098734
	-0.093258
	-0.086815
	-0.093258
	-0.088748
	-0.092291
	-0.086815
	-0.089714
	-0.092936
	-0.090037
	-0.097123
	-0.094546
	-0.100022
	-0.102277
	-0.100989
	-0.100345
	-0.097123
	-0.100989
	-0.095835
	-0.089392
	-0.084560
	-0.079406
	-0.076185
	-0.074574
	-0.072642
	-0.070387
	-0.066521
	-0.068132
	-0.064266
	-0.061689
	-0.064266
	-0.063944
	-0.069420
	-0.070709
	-0.068132
	-0.069098
	-0.066521
	-0.070387
	-0.064911
	-0.060723
	-0.053958
	-0.047516
	-0.046871
	-0.043006
	-0.042040
	-0.038818
	-0.037208
	-0.040107
	-0.030765
	-0.035275
	-0.033986
	-0.033342
	-0.036563
	-0.033342
	-0.037852
	-0.035919
	-0.037852
	-0.038818
	-0.029799
	-0.025933
	-0.013370
	-0.009827
	-0.000485
	-0.000163
	-0.003062
	0.000481
	-0.001451
	0.001448
	0.004347
	0.003380
	0.004025
	0.002736
	0.004669
	0.007890
	0.007568
	0.011756
	0.011756
	0.018198
	0.022708
	0.029473
	0.036882
	0.041714
	0.053310
	0.055565
	0.059753
	0.065551
	0.065229
	0.073926
	0.072316
	0.074249
	0.074571
	0.072316
	0.075859
	0.073282
	0.078758
	0.079080
	0.080047
	0.081980
	0.080691
	0.095187
	0.101629
	0.112260
	0.120957
	0.120957
	0.128688
	0.129977
	0.135775
	0.131265
	0.134486
	0.136741
	0.132232
	0.134486
	0.130621
	0.133198
	0.131587
	0.128366
	0.129332
	0.123856
	0.129655
	0.133520
	0.141895
	0.148338
	0.152203
	0.154458
	0.153170
	0.152526
	0.153814
	0.149626
	0.149304
	0.145439
	0.145117
	0.144795
	0.142217
	0.144472
	0.137708
	0.140607
	0.136741
	0.136741
	0.139318
	0.139640
	0.148982
	0.148338
	0.156391
	0.153814
	0.152203
	0.154136
	0.149949
	0.153492
	0.147372
	0.147372
	0.139318
	0.132554
	0.130299
	0.124178
	0.124823
	0.117092
	0.112582
	0.107750
	0.104851
	0.105495
	0.111937
	0.111937
	0.114515
	0.109360
	0.110649
	0.109360
	0.108394
	0.104206
	0.096797
	0.092288
	0.086812
	0.075859
	0.072316
	0.065551
	0.064263
	0.058142
	0.052344
	0.053632
	0.050089
	0.052988
	0.055565
	0.052022
	0.057176
	0.045257
	0.046868
	0.044613
	0.039459
	0.038492
	0.028829
	0.028506
	0.019165
	0.012722
	0.007568
	0.001126
	0.000159
	-0.008216
	-0.009827
	-0.010793
	-0.016914
	-0.010471
	-0.013048
	-0.009183
	-0.006283
	-0.009505
	-0.014337
	-0.017880
	-0.023034
	-0.024000
	-0.030443
	-0.029477
	-0.038496
	-0.041395
	-0.044939
	-0.051059
	-0.050415
	-0.054925
	-0.052992
	-0.054603
	-0.059757
	-0.052670
	-0.050737
	-0.043650
	-0.041717
	-0.040429
	-0.042040
	-0.044617
	-0.038818
	-0.047838
	-0.048160
	-0.053958
	-0.055569
	-0.056535
	-0.064266
	-0.063944
	-0.070065
	-0.066199
	-0.069098
	-0.069742
	-0.066521
	-0.063300
	-0.052670
	-0.052992
	-0.045905
	-0.052025
	-0.056857
	-0.055891
	-0.058468
	-0.060723
	-0.065877
	-0.066521
	-0.068776
	-0.073930
	-0.075863
	-0.084882
	-0.087460
	-0.090359
	-0.093580
	-0.097445
	-0.097445
	-0.091647
	-0.084882
	-0.082950
	-0.075541
	-0.080373
	-0.079084
	-0.078440
	-0.079406
	-0.076185
	-0.083272
	-0.080695
	-0.085527
	-0.086171
	-0.087782
	-0.092614
	-0.091969
	-0.097768
	-0.095835
	-0.098090
	-0.094868
	-0.085849
	-0.085527
	-0.075219
	-0.074574
	-0.074897
	-0.076185
	-0.078440
	-0.073608
	-0.076829
	-0.076185
	-0.076829
	-0.083272
	-0.080695
	-0.089392
	-0.086171
	-0.088748
	-0.093580
	-0.090359
	-0.095513
	-0.087460
	-0.083272
	-0.078440
	-0.071031
	-0.070709
	-0.070387
	-0.073286
	-0.069742
	-0.070065
	-0.073286
	-0.072320
	-0.075219
	-0.073608
	-0.078440
	-0.081339
	-0.083594
	-0.088104
	-0.085849
	-0.091003
	-0.087782
	-0.086493
	-0.080051
	-0.072320
	-0.071675
	-0.062978
	-0.069098
	-0.066521
	-0.066521
	-0.068132
	-0.065233
	-0.071353
	-0.068454
	-0.073930
	-0.075863
	-0.077474
	-0.082950
	-0.080695
	-0.084560
	-0.083272
	-0.083594
	-0.084560
	-0.074897
	-0.071675
	-0.064911
	-0.062011
	-0.061045
	-0.062978
	-0.064588
	-0.061689
	-0.064911
	-0.063944
	-0.065233
	-0.068454
	-0.070387
	-0.076185
	-0.073930
	-0.079728
	-0.079084
	-0.080373
	-0.081983
	-0.077796
	-0.073608
	-0.066521
	-0.062334
	-0.061045
	-0.059112
	-0.059434
	-0.058790
	-0.057180
	-0.062334
	-0.059434
	-0.062656
	-0.064911
	-0.064588
	-0.073930
	-0.070709
	-0.076185
	-0.075541
	-0.076829
	-0.080373
	-0.072964
	-0.069420
	-0.061367
	-0.057502
	-0.055569
	-0.054603
	-0.057180
	-0.055569
	-0.055247
	-0.055891
	-0.057824
	-0.060723
	-0.061367
	-0.064266
	-0.067810
	-0.069742
	-0.074252
	-0.072320
	-0.076507
	-0.073930
	-0.072964
	-0.066199
	-0.059434
	-0.057824
	-0.051059
	-0.053958
	-0.052348
	-0.052348
	-0.055247
	-0.053636
	-0.057180
	-0.054925
	-0.057180
	-0.061367
	-0.063622
	-0.067488
	-0.066521
	-0.070387
	-0.071353
	-0.070387
	-0.072320
	-0.061045
	-0.056857
	-0.051059
	-0.046871
	-0.049126
	-0.048160
	-0.051059
	-0.048482
	-0.051059
	-0.051059
	-0.050093
	-0.056857
	-0.055247
	-0.062011
	-0.062978
	-0.065877
	-0.069420
	-0.067810
	-0.070709
	-0.062978
	-0.060401
	-0.054280
	-0.046549
	-0.047194
	-0.044294
	-0.048160
	-0.044939
	-0.045905
	-0.050093
	-0.046227
	-0.051059
	-0.050415
	-0.053958
	-0.059434
	-0.059757
	-0.064266
	-0.062011
	-0.062978
	-0.065555
	-0.061367
	-0.058790
	-0.049126
	-0.046549
	-0.039785
	-0.042040
	-0.044617
	-0.042040
	-0.043972
	-0.042362
	-0.043972
	-0.046549
	-0.048804
	-0.053314
	-0.053636
	-0.057502
	-0.057824
	-0.060723
	-0.062011
	-0.061689
	-0.061689
	-0.051381
	-0.047516
	-0.043650
	-0.037208
	-0.040429
	-0.039463
	-0.040751
	-0.039785
	-0.040751
	-0.043650
	-0.042684
	-0.047838
	-0.046871
	-0.051381
	-0.053958
	-0.055247
	-0.060079
	-0.058146
	-0.060401
	-0.057180
	-0.051059
	-0.045583
	-0.039785
	-0.035597
	-0.038496
	-0.036563
	-0.039463
	-0.036241
	-0.039140
	-0.041717
	-0.040107
	-0.045905
	-0.044617
	-0.050737
	-0.052025
	-0.052670
	-0.058468
	-0.054925
	-0.059112
	-0.055569
	-0.048160
	-0.045261
	-0.037208
	-0.036241
	-0.034308
	-0.036563
	-0.036241
	-0.035275
	-0.040107
	-0.037530
	-0.041073
	-0.040107
	-0.043328
	-0.047194
	-0.046871
	-0.053958
	-0.051059
	-0.055247
	-0.053636
	-0.051703
	-0.050093
	-0.038174
	-0.035919
	-0.029477
	-0.032376
	-0.035275
	-0.032054
	-0.034631
	-0.033020
	-0.035275
	-0.038496
	-0.039140
	-0.043328
	-0.043972
	-0.047516
	-0.048804
	-0.050093
	-0.052670
	-0.052992
	-0.051381
	-0.044294
	-0.037852
	-0.034953
	-0.027222
	-0.031409
	-0.030765
	-0.031731
	-0.032054
	-0.031409
	-0.035919
	-0.034953
	-0.037208
	-0.038496
	-0.041717
	-0.043972
	-0.043650
	-0.048160
	-0.047194
	-0.050093
	-0.046871
	-0.040429
	-0.034953
	-0.029799
	-0.027222
	-0.026255
	-0.030443
	-0.029477
	-0.028832
	-0.031409
	-0.031731
	-0.035275
	-0.034631
	-0.037208
	-0.039785
	-0.039140
	-0.046227
	-0.044617
	-0.048804
	-0.049448
	-0.044617
	-0.041717
	-0.031087
	-0.032698
	-0.023034
	-0.027544
	-0.026900
	-0.026255
	-0.028832
	-0.026255
	-0.032698
	-0.028188
	-0.032054
	-0.035275
	-0.036563
	-0.041395
	-0.039140
	-0.043650
	-0.042684
	-0.045261
	-0.046871
	-0.035275
	-0.033020
	-0.024967
	-0.022068
	-0.025611
	-0.023678
	-0.027544
	-0.023034
	-0.027544
	-0.026900
	-0.028510
	-0.033342
	-0.031731
	-0.039463
	-0.036885
	-0.042040
	-0.042362
	-0.042684
	-0.045905
	-0.040751
	-0.038174
	-0.026577
	-0.024323
	-0.022068
	-0.023678
	-0.025933
	-0.022390
	-0.024323
	-0.024645
	-0.025933
	-0.028832
	-0.029477
	-0.034631
	-0.033664
	-0.036563
	-0.039463
	-0.041073
	-0.043328
	-0.041073
	-0.040751
	-0.034308
	-0.025289
	-0.024323
	-0.017880
	-0.023356
	-0.021423
	-0.021423
	-0.021423
	-0.021423
	-0.027222
	-0.023678
	-0.029477
	-0.029154
	-0.033342
	-0.034953
	-0.036563
	-0.040751
	-0.040751
	-0.043650
	-0.037852
	-0.032698
	-0.026900
	-0.020135
	-0.020135
	-0.018524
	-0.023034
	-0.019813
	-0.019491
	-0.022390
	-0.021423
	-0.024967
	-0.023678
	-0.029477
	-0.030765
	-0.032054
	-0.037530
	-0.035597
	-0.041717
	-0.037852
	-0.037530
	-0.031087
	-0.022390
	-0.023678
	-0.013048
	-0.020135
	-0.016591
	-0.019168
	-0.019168
	-0.018846
	-0.023034
	-0.020135
	-0.025933
	-0.024967
	-0.030443
	-0.033342
	-0.033986
	-0.041717
	-0.035597
	-0.041073
	-0.034308
	-0.029799
	-0.023356
	-0.019813
	-0.017236
	-0.015303
	-0.021101
	-0.016591
	-0.018202
	-0.015947
	-0.018524
	-0.021101
	-0.020779
	-0.028188
	-0.026255
	-0.030121
	-0.033664
	-0.033664
	-0.038174
	-0.033342
	-0.036241
	-0.026577
	-0.021423
	-0.021745
	-0.012082
	-0.017880
	-0.016269
	-0.018524
	-0.016591
	-0.016914
	-0.020457
	-0.018846
	-0.024323
	-0.024000
	-0.027866
	-0.029799
	-0.031087
	-0.036885
	-0.033986
	-0.037852
	-0.030765
	-0.028188
	-0.021423
	-0.018524
	-0.014659
	-0.013692
	-0.017558
	-0.014014
	-0.015947
	-0.013692
	-0.015947
	-0.016914
	-0.012726
	-0.016269
	-0.016914
	-0.018524
	-0.016269
	-0.012082
	-0.011437
	-0.005317
	-0.001129
	0.009823
	0.015621
	0.023030
	0.031728
	0.031083
	0.037204
	0.037526
	0.036560
	0.040425
	0.040747
	0.046868
	0.048478
	0.047190
	0.043646
	0.043969
	0.046546
	0.048156
	0.052666
	0.059753
	0.062008
	0.074571
	0.079080
	0.091643
	0.097764
	0.101307
	0.106139
	0.107428
	0.114192
	0.110971
	0.113870
	0.115481
	0.114192
	0.114515
	0.108072
	0.114192
	0.110005
	0.109683
	0.113548
	0.113548
	0.119991
	0.122890
	0.130621
	0.131909
	0.136741
	0.136419
	0.128044
	0.129977
	0.119991
	0.119346
	0.109683
	0.106139
	0.102274
	0.094865
	0.090677
	0.079725
	0.077470
	0.069417
	0.063940
	0.061686
	0.054277
	0.060075
	0.056209
	0.059753
	0.052022
	0.045901
	0.040425
	0.032372
	0.030117
	0.021420
	0.018198
	0.012078
	0.004347
	-0.003062
	-0.019168
	-0.022712
	-0.034308
	-0.038496
	-0.043972
	-0.050737
	-0.050093
	-0.054280
	-0.048160
	-0.051381
	-0.048804
	-0.052992
	-0.055891
	-0.055247
	-0.063944
	-0.063622
	-0.072320
	-0.076507
	-0.081339
	-0.093902
	-0.095835
	-0.103566
	-0.102922
	-0.110331
	-0.114840
	-0.117739
	-0.124182
	-0.112263
	-0.109686
	-0.108076
	-0.105821
	-0.110975
	-0.107754
	-0.112263
	-0.107754
	-0.104210
	-0.104854
	-0.102277
	-0.108398
	-0.105499
	-0.110331
	-0.107109
	-0.104210
	-0.105177
	-0.098412
	-0.096801
	-0.081983
	-0.064911
	-0.044617
	-0.021423
	0.069739
	0.174108
	0.340648
	0.493015
	0.692413
	0.845424
	1.029682
	1.159823
	1.274823
	1.347302
	1.388535
	1.414628
	1.414305
	1.409796
	1.356322
	1.315089
	1.229081
	1.173996
	1.072203
	1.017441
	0.922735
	0.876026
	0.794205
	0.745564
	0.656656
	0.595452
	0.513953
	0.453715
	0.365774
	0.306825
	0.222105
	0.168632
	0.090033
	0.048156
	0.002736
	-0.028510
	-0.054925
	-0.081017
	-0.101633
	-0.138034
	-0.167669
	-0.210190
	-0.246268
	-0.273005
	-0.298775
	-0.320035
	-0.345483
	-0.349027
	-0.355469
	-0.352570
	-0.346772
	-0.334531
	-0.320035
	-0.303607
	-0.286856
	-0.263663
	-0.250778
	-0.225652
	-0.215988
	-0.194084
	-0.185386
	-0.174112
	-0.167991
	-0.163159
	-0.153173
	-0.155106
	-0.148019
	-0.144154
	-0.143832
	-0.142221
	-0.148342
	-0.141255
	-0.143832
	-0.135779
	-0.135134
	-0.135779
	-0.131269
	-0.129014
	-0.117095
	-0.111619
	-0.100989
	-0.104210
	-0.105821
	-0.102277
	-0.103888
	-0.098734
	-0.100345
	-0.096801
	-0.098090
	-0.103566
	-0.103566
	-0.109364
	-0.107754
	-0.111941
	-0.110331
	-0.110975
	-0.110008
	-0.100345
	-0.097445
	-0.090359
	-0.087460
	-0.087137
	-0.087460
	-0.090681
	-0.086815
	-0.092936
	-0.091969
	-0.091969
	-0.092936
	-0.093902
	-0.102277
	-0.098090
	-0.100022
	-0.095835
	-0.096157
	-0.097123
	-0.092614
	-0.088104
	-0.080051
	-0.077474
	-0.070709
	-0.070065
	-0.070065
	-0.063944
	-0.068776
	-0.062334
	-0.062656
	-0.062334
	-0.060079
	-0.067488
	-0.066521
	-0.068776
	-0.064911
	-0.066521
	-0.066843
	-0.065555
	-0.064266
	-0.054280
	-0.053314
	-0.045905
	-0.041717
	-0.037530
	-0.034308
	-0.038174
	-0.033020
	-0.032698
	-0.030443
	-0.030121
	-0.031731
	-0.027222
	-0.033020
	-0.031731
	-0.036563
	-0.034953
	-0.034631
	-0.030765
	-0.024000
	-0.021101
	-0.009827
	-0.004028
	0.003703
	0.005957
	0.000481
	0.002736
	0.001770
	0.007568
	0.005635
	0.008212
	0.008212
	0.006924
	0.010789
	0.008534
	0.014011
	0.015621
	0.020775
	0.024641
	0.026252
	0.035593
	0.042680
	0.049767
	0.063618
	0.060075
	0.068450
	0.067162
	0.076503
	0.077470
	0.077148
	0.078114
	0.075537
	0.079080
	0.079080
	0.081980
	0.084234
	0.082302
	0.084234
	0.082302
	0.090999
	0.100663
	0.109360
	0.119346
	0.124178
	0.130943
	0.128366
	0.135775
	0.134809
	0.134486
	0.138996
	0.135775
	0.138030
	0.134486
	0.136097
	0.137386
	0.131265
	0.132232
	0.127722
	0.129655
	0.132876
	0.139640
	0.149949
	0.150593
	0.159612
	0.157680
	0.154780
	0.157358
	0.153170
	0.155747
	0.151881
	0.152203
	0.149949
	0.147049
	0.147694
	0.142862
	0.145439
	0.141573
	0.137386
	0.140285
	0.138996
	0.147372
	0.149949
	0.155103
	0.159935
	0.155425
	0.158968
	0.154458
	0.157358
	0.153170
	0.150593
	0.147049
	0.138352
	0.138674
	0.130299
	0.129332
	0.125467
	0.116447
	0.114192
	0.105173
	0.109683
	0.113226
	0.113226
	0.117736
	0.114192
	0.116769
	0.112260
	0.114837
	0.109360
	0.104851
	0.100019
	0.091966
	0.088422
	0.077148
	0.074571
	0.071672
	0.061041
	0.061686
	0.054921
	0.057820
	0.052344
	0.055887
	0.057498
	0.052988
	0.055887
	0.047834
	0.050733
	0.047190
	0.043324
	0.038814
	0.029151
	0.029473
	0.016910
	0.016266
	0.009823
	0.003058
	0.000159
	-0.006928
	-0.003384
	-0.010149
	-0.011115
	-0.007894
	-0.009183
	-0.003384
	-0.003062
	-0.005317
	-0.011760
	-0.015303
	-0.017880
	-0.024000
	-0.020779
	-0.032054
	-0.032376
	-0.040429
	-0.042362
	-0.043006
	-0.048482
	-0.045261
	-0.053314
	-0.052992
	-0.055891
	-0.048482
	-0.043006
	-0.040751
	-0.032376
	-0.041073
	-0.035919
	-0.037852
	-0.036885
	-0.042684
	-0.049448
	-0.046549
	-0.054603
	-0.052670
	-0.058146
	-0.057502
	-0.060723
	-0.064588
	-0.062334
	-0.066521
	-0.058790
	-0.056857
	-0.049771
	-0.042362
	-0.047194
	-0.047838
	-0.052992
	-0.048804
	-0.055569
	-0.060401
	-0.060401
	-0.065233
	-0.063622
	-0.069098
	-0.075219
	-0.079084
	-0.084560
	-0.083594
	-0.092291
	-0.091325
	-0.092614
	-0.086815
	-0.077796
	-0.076507
	-0.069420
	-0.073608
	-0.074574
	-0.072964
	-0.075219
	-0.073608
	-0.077151
	-0.076507
	-0.077474
	-0.083594
	-0.082628
	-0.086815
	-0.087460
	-0.088426
	-0.091003
	-0.089392
	-0.090681
	-0.080051
	-0.073930
	-0.071031
	-0.064911
	-0.071675
	-0.067488
	-0.070709
	-0.068454
	-0.068132
	-0.073286
	-0.070065
	-0.076507
	-0.074252
	-0.079084
	-0.081983
	-0.082628
	-0.088104
	-0.082628
	-0.086493
	-0.083594
	-0.076507
	-0.072320
	-0.064266
	-0.061045
	-0.062334
	-0.063300
	-0.064911
	-0.062011
	-0.064266
	-0.063944
	-0.064911
	-0.071031
	-0.068454
	-0.073930
	-0.075541
	-0.076185
	-0.082628
	-0.079084
	-0.080695
	-0.078762
	-0.068454
	-0.067165
	-0.058146
	-0.056213
	-0.058468
	-0.059434
	-0.061045
	-0.057180
	-0.060723
	-0.061045
	-0.061045
	-0.066843
	-0.066843
	-0.071675
	-0.071997
	-0.073930
	-0.077796
	-0.074897
	-0.078762
	-0.072320
	-0.068132
	-0.061367
	-0.055891
	-0.054603
	-0.052992
	-0.058146
	-0.053314
	-0.054603
	-0.054925
	-0.054603
	-0.060723
	-0.058146
	-0.066521
	-0.066199
	-0.068776
	-0.071353
	-0.070387
	-0.075863
	-0.070065
	-0.069098
	-0.062656
	-0.054925
	-0.055247
	-0.045583
	-0.053636
	-0.049448
	-0.051703
	-0.052670
	-0.050415
	-0.056535
	-0.052670
	-0.058146
	-0.057824
	-0.062334
	-0.067810
	-0.064588
	-0.071353
	-0.067165
	-0.070709
	-0.063300
	-0.058468
	-0.055891
	-0.048804
	-0.046871
	-0.046871
	-0.049448
	-0.048160
	-0.047194
	-0.050737
	-0.049448
	-0.053958
	-0.052992
	-0.057824
	-0.058146
	-0.061045
	-0.064266
	-0.064588
	-0.069098
	-0.064266
	-0.065233
	-0.054603
	-0.050093
	-0.048482
	-0.041717
	-0.046549
	-0.044294
	-0.044939
	-0.046549
	-0.044617
	-0.048804
	-0.045905
	-0.052670
	-0.050737
	-0.055569
	-0.059112
	-0.060079
	-0.063944
	-0.062656
	-0.063300
	-0.059757
	-0.052348
	-0.050093
	-0.043006
	-0.039785
	-0.042684
	-0.041717
	-0.043650
	-0.041073
	-0.044294
	-0.043006
	-0.043006
	-0.048160
	-0.049448
	-0.054603
	-0.053636
	-0.056213
	-0.060723
	-0.058146
	-0.062334
	-0.056213
	-0.046549
	-0.047194
	-0.038174
	-0.038174
	-0.039140
	-0.038496
	-0.041395
	-0.037852
	-0.042040
	-0.039463
	-0.041395
	-0.044939
	-0.045583
	-0.052992
	-0.051381
	-0.057180
	-0.055569
	-0.056535
	-0.058468
	-0.054603
	-0.049771
	-0.040429
	-0.038818
	-0.032698
	-0.037208
	-0.038496
	-0.035919
	-0.039140
	-0.035275
	-0.040107
	-0.035919
	-0.040751
	-0.044617
	-0.047194
	-0.053958
	-0.050737
	-0.056213
	-0.052992
	-0.053314
	-0.053958
	-0.043650
	-0.043006
	-0.033664
	-0.033664
	-0.033020
	-0.033986
	-0.034631
	-0.032698
	-0.036563
	-0.033342
	-0.038818
	-0.037852
	-0.043006
	-0.045583
	-0.046549
	-0.051059
	-0.049126
	-0.054603
	-0.050093
	-0.050737
	-0.043650
	-0.036241
	-0.034631
	-0.027544
	-0.035275
	-0.031409
	-0.032376
	-0.030121
	-0.030765
	-0.035275
	-0.034631
	-0.039463
	-0.039463
	-0.043650
	-0.046227
	-0.044617
	-0.051059
	-0.046871
	-0.051381
	-0.047194
	-0.040429
	-0.036563
	-0.028510
	-0.029799
	-0.028510
	-0.031731
	-0.028188
	-0.030121
	-0.032698
	-0.030121
	-0.034953
	-0.032376
	-0.040107
	-0.040429
	-0.043006
	-0.046549
	-0.044294
	-0.050737
	-0.045583
	-0.046549
	-0.040107
	-0.032054
	-0.031731
	-0.024645
	-0.029799
	-0.026900
	-0.026577
	-0.029799
	-0.026255
	-0.032054
	-0.026900
	-0.033342
	-0.034631
	-0.037852
	-0.042362
	-0.041073
	-0.046227
	-0.043972
	-0.045261
	-0.044939
	-0.036563
	-0.033020
	-0.024645
	-0.022712
	-0.025289
	-0.024967
	-0.026577
	-0.023678
	-0.024967
	-0.029154
	-0.028510
	-0.032698
	-0.034631
	-0.036563
	-0.040751
	-0.040751
	-0.044939
	-0.043328
	-0.043006
	-0.042362
	-0.032376
	-0.030121
	-0.024323
	-0.020135
	-0.024323
	-0.022068
	-0.026255
	-0.019813
	-0.024323
	-0.025289
	-0.024967
	-0.031409
	-0.030443
	-0.037208
	-0.035275
	-0.038496
	-0.042684
	-0.039140
	-0.044939
	-0.036885
	-0.031087
	-0.028188
	-0.020779
	-0.022390
	-0.018846
	-0.023034
	-0.021745
	-0.019491
	-0.024323
	-0.023034
	-0.026255
	-0.027222
	-0.029799
	-0.035597
	-0.033664
	-0.038818
	-0.039463
	-0.040107
	-0.040751
	-0.034953
	-0.030765
	-0.024000
	-0.019491
	-0.020135
	-0.018846
	-0.021745
	-0.020779
	-0.019168
	-0.024967
	-0.020457
	-0.022712
	-0.025933
	-0.025611
	-0.035597
	-0.031409
	-0.037852
	-0.036885
	-0.038496
	-0.041073
	-0.032698
	-0.030121
	-0.022712
	-0.018524
	-0.016269
	-0.017558
	-0.020779
	-0.017558
	-0.018202
	-0.019813
	-0.018846
	-0.023034
	-0.023356
	-0.025933
	-0.029799
	-0.030121
	-0.037208
	-0.035597
	-0.037852
	-0.036885
	-0.030765
	-0.028832
	-0.020457
	-0.019813
	-0.012726
	-0.014014
	-0.016914
	-0.014659
	-0.020457
	-0.016269
	-0.020135
	-0.021423
	-0.021101
	-0.028510
	-0.026900
	-0.031409
	-0.032376
	-0.033986
	-0.038496
	-0.034631
	-0.032698
	-0.025289
	-0.019491
	-0.017880
	-0.011760
	-0.016269
	-0.014981
	-0.014659
	-0.017236
	-0.014659
	-0.019813
	-0.018202
	-0.021745
	-0.025611
	-0.026577
	-0.031409
	-0.031087
	-0.035275
	-0.033342
	-0.032376
	-0.031409
	-0.022068
	-0.019168
	-0.013048
	-0.009827
	-0.016269
	-0.012726
	-0.018202
	-0.012404
	-0.015625
	-0.016269
	-0.015303
	-0.022712
	-0.021101
	-0.028510
	-0.027222
	-0.029154
	-0.033342
	-0.032054
	-0.035919
	-0.026577
	-0.023356
	-0.017880
	-0.012726
	-0.009827
	-0.011760
	-0.014659
	-0.012404
	-0.012404
	-0.013692
	-0.015947
	-0.018202
	-0.017558
	-0.023034
	-0.024000
	-0.026255
	-0.031409
	-0.031087
	-0.033342
	-0.031087
	-0.030121
	-0.021745
	-0.014981
	-0.014337
	-0.007250
	-0.013370
	-0.011437
	-0.012404
	-0.014014
	-0.011115
	-0.017236
	-0.013048
	-0.022068
	-0.020457
	-0.025289
	-0.028832
	-0.028188
	-0.034308
	-0.029154
	-0.032698
	-0.028510
	-0.021101
	-0.016914
	-0.010149
	-0.010471
	-0.010471
	-0.008860
	-0.012082
	-0.009827
	-0.013692
	-0.011115
	-0.008216
	-0.008216
	-0.011115
	-0.014981
	-0.010471
	-0.011437
	-0.004028
	-0.002418
	0.003058
	0.009501
	0.012078
	0.023674
	0.029795
	0.039781
	0.039459
	0.039137
	0.042680
	0.042358
	0.049445
	0.048800
	0.055887
	0.052344
	0.047190
	0.050733
	0.047512
	0.056209
	0.052988
	0.059753
	0.064907
	0.069417
	0.081335
	0.088422
	0.100663
	0.107106
	0.105817
	0.114515
	0.115481
	0.117736
	0.116125
	0.119346
	0.121279
	0.116769
	0.116447
	0.115159
	0.118058
	0.113870
	0.112260
	0.118380
	0.118702
	0.121601
	0.129655
	0.131909
	0.137386
	0.137063
	0.135131
	0.130299
	0.126111
	0.123856
	0.114192
	0.111615
	0.105173
	0.103562
	0.097120
	0.087778
	0.082624
	0.072638
	0.070061
	0.061686
	0.058142
	0.057498
	0.055565
	0.061363
	0.051377
	0.052022
	0.040747
	0.036560
	0.033660
	0.025285
	0.023674
	0.013689
	0.009823
	0.002736
	-0.012404
	-0.018846
	-0.032054
	-0.032376
	-0.044617
	-0.045905
	-0.050093
	-0.054925
	-0.049126
	-0.051703
	-0.048160
	-0.048160
	-0.052025
	-0.052992
	-0.058468
	-0.060079
	-0.065877
	-0.073930
	-0.077796
	-0.087782
	-0.091647
	-0.099700
	-0.098090
	-0.106143
	-0.110653
	-0.116451
	-0.118706
	-0.116451
	-0.113874
	-0.109364
	-0.106465
	-0.105821
	-0.107754
	-0.110653
	-0.104854
	-0.104532
	-0.100667
	-0.102277
	-0.102277
	-0.102922
	-0.106143
	-0.102922
	-0.103566
	-0.097768
	-0.096157
	-0.093580
	-0.084238
	-0.069420
	-0.050093
	-0.026577
	0.049123
	0.166377
	0.308113
	0.482385
	0.658589
	0.837049
	1.004234
	1.150803
	1.264193
	1.341826
	1.389501
	1.413017
	1.418493
	1.414628
	1.365664
	1.324431
	1.237778
	1.183016
	1.084444
	1.028071
	0.934332
	0.884402
	0.802581
	0.756839
	0.667931
	0.613813
	0.524906
	0.470144
	0.375438
	0.320676
	0.232735
	0.182483
	0.100341
	0.057498
	0.011756
	-0.021101
	-0.052025
	-0.079084
	-0.105499
	-0.131591
	-0.167025
	-0.199560
	-0.243047
	-0.266240
	-0.295232
	-0.313915
	-0.337752
	-0.348705
	-0.350960
	-0.352248
	-0.342584
	-0.334853
	-0.316814
	-0.301674
	-0.287178
	-0.265596
	-0.253033
	-0.232739
	-0.219210
	-0.199560
	-0.186030
	-0.173468
	-0.167347
	-0.161871
	-0.156073
	-0.149630
	-0.149308
	-0.142221
	-0.142865
	-0.141899
	-0.143832
	-0.141255
	-0.138034
	-0.137067
	-0.133524
	-0.137067
	-0.131591
	-0.132235
	-0.121927
	-0.110975
	-0.107109
	-0.099056
	-0.105499
	-0.100345
	-0.101633
	-0.093258
	-0.095191
	-0.096157
	-0.095513
	-0.099700
	-0.097123
	-0.106465
	-0.103888
	-0.109042
	-0.109042
	-0.109686
	-0.110008
	-0.105177
	-0.100989
	-0.091969
	-0.089070
	-0.084882
	-0.086815
	-0.090359
	-0.084882
	-0.088748
	-0.086815
	-0.088104
	-0.089714
	-0.088104
	-0.097445
	-0.095191
	-0.095513
	-0.095191
	-0.093258
	-0.099378
	-0.092291
	-0.093580
	-0.085527
	-0.075541
	-0.077151
	-0.066843
	-0.070387
	-0.064911
	-0.064911
	-0.065233
	-0.056535
	-0.062011
	-0.057180
	-0.061689
	-0.063944
	-0.062334
	-0.065233
	-0.062011
	-0.066521
	-0.063944
	-0.064588
	-0.061689
	-0.053314
	-0.052025
	-0.041717
	-0.039463
	-0.036563
	-0.035597
	-0.037530
	-0.028510
	-0.032054
	-0.027544
	-0.031087
	-0.027866
	-0.026900
	-0.032698
	-0.029477
	-0.036563
	-0.031409
	-0.030765
	-0.027544
	-0.022712
	-0.019168
	-0.004351
	-0.002740
	0.005313
	0.000481
	0.002414
	0.005313
	0.005313
	0.010145
	0.005313
	0.011756
	0.009823
	0.012400
	0.013366
	0.012078
	0.017232
	0.018843
	0.025285
	0.025607
	0.027218
	0.039137
	0.043002
	0.056854
	0.059431
	0.065873
	0.067162
	0.072316
	0.077470
	0.073604
	0.078114
	0.078436
	0.080691
	0.082946
	0.079403
	0.085845
	0.082946
	0.086489
	0.082946
	0.090033
	0.095187
	0.102596
	0.115159
	0.121279
	0.128688
	0.130943
	0.131587
	0.136097
	0.136097
	0.139963
	0.140607
	0.138352
	0.140607
	0.138030
	0.137063
	0.134164
	0.132554
	0.131587
	0.127400
	0.130621
	0.133520
	0.141895
	0.150271
	0.152848
	0.157358
	0.152203
	0.155747
	0.153492
	0.152526
	0.152203
	0.148338
	0.148660
	0.148016
	0.149626
	0.145117
	0.144795
	0.140285
	0.139318
	0.138674
	0.136419
	0.143184
	0.144150
	0.151881
	0.152526
	0.158002
	0.155747
	0.150915
	0.155103
	0.151559
	0.152203
	0.143184
	0.141895
	0.137063
	0.132876
	0.130299
	0.122890
	0.119991
	0.110327
	0.108394
	0.106461
	0.105495
	0.109360
	0.106783
	0.113226
	0.113226
	0.113226
	0.112582
	0.106783
	0.103240
	0.096153
	0.093254
	0.083268
	0.079725
	0.076181
	0.068772
	0.065873
	0.057820
	0.058142
	0.054277
	0.049445
	0.050411
	0.049767
	0.050411
	0.050089
	0.047834
	0.047834
	0.044613
	0.041714
	0.036237
	0.032372
	0.025929
	0.020131
	0.016588
	0.010467
	0.005635
	-0.001774
	-0.005639
	-0.006928
	-0.013370
	-0.013692
	-0.019168
	-0.014337
	-0.010793
	-0.007572
	-0.006606
	-0.015303
	-0.017880
	-0.021745
	-0.022712
	-0.023678
	-0.031731
	-0.034308
	-0.040751
	-0.041395
	-0.045583
	-0.046549
	-0.047838
	-0.051703
	-0.054603
	-0.059757
	-0.055569
	-0.048482
	-0.044939
	-0.037852
	-0.038496
	-0.038174
	-0.042684
	-0.038496
	-0.044939
	-0.049448
	-0.049126
	-0.052992
	-0.051059
	-0.059434
	-0.059112
	-0.061367
	-0.065233
	-0.063622
	-0.068776
	-0.063622
	-0.063622
	-0.054925
	-0.048804
	-0.050093
	-0.047194
	-0.054603
	-0.051059
	-0.058790
	-0.059112
	-0.060401
	-0.066843
	-0.064266
	-0.070709
	-0.074574
	-0.082628
	-0.082628
	-0.086171
	-0.094546
	-0.094546
	-0.099378
	-0.091647
	-0.087782
	-0.079728
	-0.075541
	-0.074574
	-0.075541
	-0.078762
	-0.074574
	-0.078118
	-0.074897
	-0.078118
	-0.078440
	-0.079728
	-0.086171
	-0.084560
	-0.091969
	-0.090037
	-0.092936
	-0.092291
	-0.091325
	-0.089392
	-0.079728
	-0.078440
	-0.069742
	-0.069098
	-0.070387
	-0.070709
	-0.071997
	-0.070065
	-0.073930
	-0.071353
	-0.074574
	-0.075541
	-0.079084
	-0.082950
	-0.082950
	-0.087460
	-0.087137
	-0.087460
	-0.089070
	-0.081983
	-0.078118
	-0.071353
	-0.064266
	-0.065877
	-0.065233
	-0.070065
	-0.064588
	-0.066199
	-0.067165
	-0.066521
	-0.073286
	-0.069742
	-0.076829
	-0.077151
	-0.079084
	-0.085527
	-0.081017
	-0.086815
	-0.081661
	-0.077474
	-0.073286
	-0.066199
	-0.064911
	-0.056857
	-0.064266
	-0.061689
	-0.062011
	-0.063622
	-0.062978
	-0.065877
	-0.064911
	-0.066843
	-0.071675
	-0.074574
	-0.077151
	-0.075219
	-0.078118
	-0.080695
	-0.078440
	-0.075863
	-0.068132
	-0.061367
	-0.060079
	-0.054280
	-0.061045
	-0.056535
	-0.058146
	-0.058790
	-0.056857
	-0.062656
	-0.058790
	-0.063944
	-0.066521
	-0.068454
	-0.074252
	-0.072320
	-0.077151
	-0.077151
	-0.073930
	-0.074574
	-0.062011
	-0.061367
	-0.052025
	-0.052348
	-0.057824
	-0.053636
	-0.056535
	-0.052348
	-0.055569
	-0.055891
	-0.057180
	-0.061689
	-0.062334
	-0.067488
	-0.068132
	-0.070709
	-0.072964
	-0.071997
	-0.073930
	-0.068454
	-0.061689
	-0.054925
	-0.051059
	-0.050415
	-0.052670
	-0.051381
	-0.050737
	-0.051059
	-0.050737
	-0.052025
	-0.055891
	-0.056857
	-0.061367
	-0.062978
	-0.064266
	-0.066521
	-0.066521
	-0.071031
	-0.066843
	-0.066843
	-0.056857
	-0.050737
	-0.048482
	-0.042362
	-0.050093
	-0.046549
	-0.046871
	-0.047516
	-0.044294
	-0.051381
	-0.048482
	-0.054280
	-0.055569
	-0.057502
	-0.063300
	-0.061045
	-0.066843
	-0.064588
	-0.065555
	-0.062978
	-0.051703
	-0.051703
	-0.042040
	-0.043972
	-0.043650
	-0.044617
	-0.043972
	-0.043006
	-0.048482
	-0.044939
	-0.050737
	-0.050737
	-0.052992
	-0.059757
	-0.056857
	-0.063300
	-0.061045
	-0.062334
	-0.064588
	-0.058468
	-0.053314
	-0.045583
	-0.040107
	-0.040429
	-0.041395
	-0.043650
	-0.041395
	-0.040751
	-0.044617
	-0.043972
	-0.045261
	-0.045583
	-0.050415
	-0.052992
	-0.053958
	-0.059112
	-0.057824
	-0.059757
	-0.058146
	-0.056535
	-0.049771
	-0.043006
	-0.039463
	-0.036241
	-0.039140
	-0.039140
	-0.037852
	-0.041395
	-0.039463
	-0.042040
	-0.041717
	-0.043972
	-0.048482
	-0.049771
	-0.053958
	-0.054603
	-0.055569
	-0.059112
	-0.055247
	-0.055569
	-0.046227
	-0.040751
	-0.035919
	-0.032054
	-0.038818
	-0.034953
	-0.036885
	-0.035275
	-0.035275
	-0.040751
	-0.037208
	-0.044294
	-0.044294
	-0.046549
	-0.052025
	-0.051703
	-0.055247
	-0.053314
	-0.053314
	-0.052992
	-0.042362
	-0.040107
	-0.031731
	-0.031731
	-0.033664
	-0.032054
	-0.035597
	-0.032054
	-0.036885
	-0.034308
	-0.036563
	-0.041073
	-0.040751
	-0.047838
	-0.045261
	-0.051059
	-0.050093
	-0.051059
	-0.052992
	-0.047194
	-0.043328
	-0.032376
	-0.032376
	-0.029154
	-0.030121
	-0.033342
	-0.029799
	-0.032376
	-0.031409
	-0.032376
	-0.035597
	-0.035275
	-0.041395
	-0.042040
	-0.043972
	-0.047516
	-0.047838
	-0.052025
	-0.046549
	-0.046871
	-0.039140
	-0.032698
	-0.029154
	-0.026900
	-0.028510
	-0.030765
	-0.027866
	-0.031087
	-0.028510
	-0.032054
	-0.033342
	-0.033342
	-0.041395
	-0.039140
	-0.043650
	-0.044617
	-0.045261
	-0.050737
	-0.043650
	-0.045905
	-0.035919
	-0.031409
	-0.026900
	-0.023034
	-0.029477
	-0.025933
	-0.026255
	-0.029477
	-0.027222
	-0.030443
	-0.029154
	-0.031087
	-0.036885
	-0.036885
	-0.041717
	-0.043650
	-0.043972
	-0.045261
	-0.042684
	-0.044617
	-0.033664
	-0.030121
	-0.023678
	-0.022712
	-0.027866
	-0.023678
	-0.027866
	-0.022068
	-0.027222
	-0.025933
	-0.027544
	-0.033342
	-0.031409
	-0.039785
	-0.038174
	-0.041395
	-0.041395
	-0.043006
	-0.044617
	-0.039463
	-0.034308
	-0.026255
	-0.022068
	-0.022712
	-0.023678
	-0.025611
	-0.022390
	-0.023678
	-0.025289
	-0.026255
	-0.027866
	-0.027866
	-0.032376
	-0.034953
	-0.035597
	-0.042684
	-0.040107
	-0.044294
	-0.039785
	-0.037208
	-0.031731
	-0.024645
	-0.023034
	-0.017558
	-0.024000
	-0.019168
	-0.020779
	-0.022068
	-0.020457
	-0.026900
	-0.023034
	-0.031731
	-0.029477
	-0.034953
	-0.036241
	-0.037208
	-0.041073
	-0.038496
	-0.040107
	-0.034953
	-0.030443
	-0.023356
	-0.016914
	-0.019168
	-0.017236
	-0.023034
	-0.018202
	-0.019813
	-0.019491
	-0.020457
	-0.027222
	-0.023034
	-0.031731
	-0.030443
	-0.033664
	-0.038174
	-0.035597
	-0.041073
	-0.034953
	-0.035919
	-0.027544
	-0.021745
	-0.019813
	-0.014337
	-0.020457
	-0.016914
	-0.017558
	-0.019813
	-0.018846
	-0.021423
	-0.020457
	-0.023034
	-0.026577
	-0.030121
	-0.033664
	-0.032698
	-0.038496
	-0.035275
	-0.036885
	-0.033342
	-0.024967
	-0.023034
	-0.016269
	-0.015625
	-0.016914
	-0.015625
	-0.017558
	-0.014659
	-0.019168
	-0.016914
	-0.019491
	-0.023034
	-0.028832
	-0.030121
	-0.029154
	-0.036241
	-0.034308
	-0.036885
	-0.034308
	-0.030121
	-0.026255
	-0.017880
	-0.014337
	-0.011115
	-0.014981
	-0.015947
	-0.012082
	-0.017236
	-0.014337
	-0.017880
	-0.017236
	-0.020457
	-0.024323
	-0.024323
	-0.032376
	-0.030121
	-0.034308
	-0.033020
	-0.030765
	-0.032054
	-0.020135
	-0.021423
	-0.011115
	-0.011437
	-0.012404
	-0.011760
	-0.015625
	-0.010471
	-0.015625
	-0.014659
	-0.016269
	-0.022068
	-0.022390
	-0.029154
	-0.024967
	-0.029799
	-0.033020
	-0.030765
	-0.034308
	-0.026900
	-0.022390
	-0.015947
	-0.011115
	-0.011115
	-0.011437
	-0.014659
	-0.010793
	-0.011760
	-0.013692
	-0.014659
	-0.017558
	-0.017236
	-0.023678
	-0.024000
	-0.025611
	-0.031409
	-0.029477
	-0.033342
	-0.030443
	-0.027544
	-0.020457
	-0.013692
	-0.011115
	-0.007572
	-0.009827
	-0.012082
	-0.007572
	-0.012726
	-0.009827
	-0.009183
	-0.006606
	-0.007572
	-0.010149
	-0.007572
	-0.008860
	-0.004351
	-0.003062
	0.001448
	0.006280
	0.005957
	0.018198
	0.024963
	0.036560
	0.041069
	0.039459
	0.043969
	0.041392
	0.049123
	0.049123
	0.054921
	0.054921
	0.050411
	0.054599
	0.048800
	0.058464
	0.053632
	0.058786
	0.062652
	0.065873
	0.076503
	0.082946
	0.096475
	0.103562
	0.109038
	0.113870
	0.112582
	0.116125
	0.114515
	0.120957
	0.120957
	0.119346
	0.119669
	0.117092
	0.119346
	0.114837
	0.116125
	0.118058
	0.116769
	0.121923
	0.119669
	0.131909
	0.132232
	0.138996
	0.137386
	0.129655
	0.127722
	0.119024
	0.118702
	0.109038
	0.108394
	0.106783
	0.096797
	0.092610
	0.079403
	0.078436
	0.068128
	0.063296
	0.059431
	0.052666
	0.055887
	0.054277
	0.052022
	0.050089
	0.042358
	0.039781
	0.032372
	0.028506
	0.024641
	0.016588
	0.011434
	0.005635
	-0.005961
	-0.014337
	-0.028188
	-0.030443
	-0.042684
	-0.043972
	-0.051059
	-0.052992
	-0.053958
	-0.055247
	-0.048804
	-0.051059
	-0.046227
	-0.054925
	-0.056213
	-0.060079
	-0.067165
	-0.069420
	-0.079084
	-0.078762
	-0.087460
	-0.093258
	-0.097445
	-0.105177
	-0.105499
	-0.116129
	-0.117095
	-0.119028
	-0.115485
	-0.110008
	-0.112585
	-0.102922
	-0.108398
	-0.107109
	-0.108076
	-0.100989
	-0.098734
	-0.100667
	-0.097123
	-0.105499
	-0.101311
	-0.104532
	-0.101311
	-0.098090
	-0.099056
	-0.091647
	-0.089714
	-0.070709
	-0.057502
	-0.029154
	0.025285
	0.152848
	0.280410
	0.464346
	0.628631
	0.820942
	0.976209
	1.139850
	1.245509
	1.342148
	1.384347
	1.414628
	1.420104
	1.413983
	1.375972
	1.326686
	1.252918
	1.186559
	1.096041
	1.032259
	0.940452
	0.887945
	0.810956
	0.761993
	0.677273
	0.619289
	0.536180
	0.480452
	0.389290
	0.335172
	0.246909
	0.198590
	0.108072
	0.066840
	0.012078
	-0.010793
	-0.052025
	-0.071353
	-0.105177
	-0.127725
	-0.164770
	-0.195372
	-0.233061
	-0.263985
	-0.289111
	-0.308761
	-0.336142
	-0.342584
	-0.351926
	-0.346450
	-0.344839
	-0.333565
	-0.317458
	-0.303929
	-0.287501
	-0.270428
	-0.251744
	-0.237571
	-0.223719
	-0.203425
	-0.193439
	-0.173145
	-0.168313
	-0.159938
	-0.158005
	-0.149630
	-0.146087
	-0.142865
	-0.137067
	-0.141577
	-0.139322
	-0.139644
	-0.138034
	-0.132557
	-0.135456
	-0.131591
	-0.135456
	-0.130625
	-0.127403
	-0.116129
	-0.106787
	-0.104210
	-0.098734
	-0.105177
	-0.100345
	-0.094868
	-0.096801
	-0.092936
	-0.098734
	-0.093580
	-0.098734
	-0.101633
	-0.102277
	-0.108720
	-0.105499
	-0.110975
	-0.106787
	-0.107754
	-0.106465
	-0.096801
	-0.092936
	-0.085527
	-0.086171
	-0.088104
	-0.086171
	-0.089392
	-0.085527
	-0.088426
	-0.088748
	-0.089070
	-0.094868
	-0.095513
	-0.093902
	-0.092614
	-0.091647
	-0.098412
	-0.092614
	-0.096801
	-0.089714
	-0.081339
	-0.079728
	-0.070387
	-0.069742
	-0.064266
	-0.066199
	-0.062334
	-0.058790
	-0.059757
	-0.058468
	-0.062334
	-0.060079
	-0.063944
	-0.060079
	-0.059757
	-0.065233
	-0.061689
	-0.066843
	-0.062656
	-0.060079
	-0.053958
	-0.047194
	-0.041395
	-0.033664
	-0.036563
	-0.035597
	-0.029477
	-0.030121
	-0.027544
	-0.030443
	-0.024000
	-0.025289
	-0.027544
	-0.027544
	-0.032698
	-0.031731
	-0.032376
	-0.027222
	-0.026255
	-0.021745
	-0.008216
	-0.004995
	0.004025
	0.000159
	0.002414
	0.002092
	0.006924
	0.011434
	0.005635
	0.010789
	0.010145
	0.013366
	0.017232
	0.014011
	0.021420
	0.017876
	0.026252
	0.023997
	0.027218
	0.032694
	0.041392
	0.052344
	0.056854
	0.067162
	0.065873
	0.074571
	0.075859
	0.077148
	0.078114
	0.077148
	0.083268
	0.082946
	0.085845
	0.085845
	0.086167
	0.085845
	0.082946
	0.090033
	0.089066
	0.101629
	0.109038
	0.119024
	0.128044
	0.132876
	0.133842
	0.132232
	0.138674
	0.139963
	0.141251
	0.141251
	0.139318
	0.141251
	0.137063
	0.136741
	0.134486
	0.132554
	0.130621
	0.128044
	0.133842
	0.135453
	0.147372
	0.149949
	0.156713
	0.156069
	0.151559
	0.155425
	0.152203
	0.153814
	0.151237
	0.151559
	0.152203
	0.152203
	0.151237
	0.144150
	0.144150
	0.140929
	0.139963
	0.138996
	0.137063
	0.143184
	0.146405
	0.151237
	0.153492
	0.156069
	0.154780
	0.153170
	0.154458
	0.152526
	0.148016
	0.143828
	0.138030
	0.137708
	0.131909
	0.127400
	0.119024
	0.115803
	0.109038
	0.104851
	0.105173
	0.102918
	0.108394
	0.108072
	0.113870
	0.112582
	0.111615
	0.108072
	0.104206
	0.098408
	0.092610
	0.089389
	0.083268
	0.078758
	0.074571
	0.065229
	0.060719
	0.056854
	0.057498
	0.047834
	0.049767
	0.043324
	0.047512
	0.046546
	0.047512
	0.048800
	0.043969
	0.041069
	0.038814
	0.032694
	0.028506
	0.018843
	0.018198
	0.011434
	0.009823
	-0.000163
	-0.003062
	-0.005961
	-0.011115
	-0.013048
	-0.019491
	-0.017880
	-0.015303
	-0.011760
	-0.007572
	-0.013048
	-0.015947
	-0.022712
	-0.021745
	-0.024000
	-0.027544
	-0.030765
	-0.036885
	-0.037852
	-0.044939
	-0.042684
	-0.048804
	-0.050737
	-0.054280
	-0.061045
	-0.056213
	-0.058468
	-0.046871
	-0.043650
	-0.037530
	-0.036563
	-0.040429
	-0.037208
	-0.046549
	-0.044294
	-0.050415
	-0.048804
	-0.051381
	-0.054280
	-0.055569
	-0.060723
	-0.061045
	-0.066843
	-0.063944
	-0.066521
	-0.064911
	-0.058468
	-0.056535
	-0.048804
	-0.052348
	-0.048160
	-0.053958
	-0.058146
	-0.058790
	-0.063944
	-0.060079
	-0.065233
	-0.067488
	-0.071031
	-0.080373
	-0.080695
	-0.086493
	-0.090037
	-0.094868
	-0.097445
	-0.093580
	-0.095513
	-0.083916
	-0.080695
	-0.076185
	-0.073286
	-0.078440
	-0.074897
	-0.073930
	-0.077151
	-0.074897
	-0.078762
	-0.077151
	-0.081661
	-0.084238
	-0.084882
	-0.090037
	-0.090037
	-0.092291
	-0.093258
	-0.089392
	-0.091003
	-0.078440
	-0.077151
	-0.068454
	-0.068776
	-0.071675
	-0.069742
	-0.072320
	-0.067165
	-0.073608
	-0.071997
	-0.072320
	-0.078118
	-0.075863
	-0.085205
	-0.081983
	-0.087782
	-0.088104
	-0.086815
	-0.090359
	-0.081017
	-0.078118
	-0.068776
	-0.064266
	-0.064911
	-0.066199
	-0.069098
	-0.064588
	-0.067165
	-0.065233
	-0.066843
	-0.071031
	-0.069098
	-0.076829
	-0.075541
	-0.079406
	-0.082628
	-0.081017
	-0.086171
	-0.081017
	-0.081339
	-0.070065
	-0.065555
	-0.060401
	-0.058146
	-0.064266
	-0.060079
	-0.064588
	-0.060723
	-0.063300
	-0.064266
	-0.062334
	-0.070387
	-0.070065
	-0.075863
	-0.075219
	-0.077796
	-0.078118
	-0.078440
	-0.080051
	-0.072964
	-0.067488
	-0.060723
	-0.054280
	-0.056213
	-0.055891
	-0.060401
	-0.056857
	-0.059434
	-0.057824
	-0.059112
	-0.062334
	-0.062334
	-0.068776
	-0.068776
	-0.073608
	-0.072320
	-0.074574
	-0.074252
	-0.072964
	-0.071031
	-0.061045
	-0.059112
	-0.050093
	-0.053958
	-0.053958
	-0.053314
	-0.054603
	-0.052348
	-0.056857
	-0.054603
	-0.059434
	-0.058468
	-0.063622
	-0.066843
	-0.067165
	-0.073286
	-0.069420
	-0.073930
	-0.068454
	-0.066521
	-0.058146
	-0.052348
	-0.050415
	-0.047516
	-0.053958
	-0.049126
	-0.051703
	-0.048482
	-0.050415
	-0.055247
	-0.053314
	-0.059434
	-0.058146
	-0.062978
	-0.065877
	-0.066199
	-0.070065
	-0.065877
	-0.069098
	-0.060401
	-0.055891
	-0.050737
	-0.043328
	-0.049126
	-0.044939
	-0.049126
	-0.044939
	-0.046871
	-0.049771
	-0.047516
	-0.053958
	-0.050737
	-0.060079
	-0.059112
	-0.060401
	-0.065877
	-0.062656
	-0.068132
	-0.061045
	-0.060723
	-0.051381
	-0.047194
	-0.043650
	-0.040751
	-0.046549
	-0.042684
	-0.046549
	-0.042684
	-0.045261
	-0.047516
	-0.046871
	-0.052670
	-0.054280
	-0.058790
	-0.058790
	-0.061367
	-0.062656
	-0.059434
	-0.063622
	-0.053958
	-0.050737
	-0.042362
	-0.040751
	-0.039463
	-0.041717
	-0.043006
	-0.038496
	-0.044939
	-0.040751
	-0.045905
	-0.043972
	-0.046549
	-0.054280
	-0.052348
	-0.059112
	-0.055569
	-0.059112
	-0.057824
	-0.056857
	-0.053636
	-0.043650
	-0.044617
	-0.033986
	-0.039140
	-0.037530
	-0.039140
	-0.038818
	-0.036241
	-0.042362
	-0.038818
	-0.043650
	-0.044617
	-0.048804
	-0.053636
	-0.051703
	-0.057824
	-0.053314
	-0.057180
	-0.053958
	-0.048482
	-0.045905
	-0.037852
	-0.036241
	-0.032698
	-0.038818
	-0.035275
	-0.035597
	-0.036885
	-0.036241
	-0.041073
	-0.037852
	-0.043006
	-0.044617
	-0.046871
	-0.051703
	-0.051703
	-0.054603
	-0.052670
	-0.051059
	-0.049771
	-0.040429
	-0.037852
	-0.030443
	-0.030765
	-0.036241
	-0.032698
	-0.034308
	-0.033664
	-0.035275
	-0.035597
	-0.036563
	-0.041395
	-0.043328
	-0.046871
	-0.047838
	-0.050093
	-0.052025
	-0.049771
	-0.050737
	-0.045261
	-0.039463
	-0.033020
	-0.027544
	-0.031087
	-0.030121
	-0.033986
	-0.029154
	-0.030765
	-0.033020
	-0.033020
	-0.038496
	-0.036563
	-0.043328
	-0.043650
	-0.045583
	-0.049126
	-0.046227
	-0.052670
	-0.046227
	-0.044939
	-0.036563
	-0.031087
	-0.029799
	-0.024967
	-0.032054
	-0.026900
	-0.030121
	-0.027544
	-0.029154
	-0.034953
	-0.032376
	-0.038174
	-0.039140
	-0.041717
	-0.044617
	-0.044939
	-0.048160
	-0.046227
	-0.045905
	-0.043650
	-0.033986
	-0.031087
	-0.023678
	-0.025289
	-0.027544
	-0.024000
	-0.030443
	-0.026577
	-0.030765
	-0.028832
	-0.030121
	-0.035919
	-0.036885
	-0.042040
	-0.039140
	-0.045905
	-0.043650
	-0.044617
	-0.046227
	-0.040107
	-0.035275
	-0.027544
	-0.023034
	-0.023678
	-0.025289
	-0.026900
	-0.025611
	-0.028510
	-0.026577
	-0.030121
	-0.030765
	-0.032054
	-0.037852
	-0.038496
	-0.041717
	-0.043006
	-0.044294
	-0.044617
	-0.041073
	-0.040751
	-0.029477
	-0.027544
	-0.023034
	-0.020779
	-0.025933
	-0.023356
	-0.026577
	-0.024323
	-0.025611
	-0.028188
	-0.026900
	-0.033986
	-0.033020
	-0.038818
	-0.038174
	-0.040751
	-0.045583
	-0.041395
	-0.044939
	-0.036885
	-0.030765
	-0.025289
	-0.019813
	-0.024000
	-0.021745
	-0.026255
	-0.021423
	-0.024000
	-0.024323
	-0.024645
	-0.030443
	-0.027222
	-0.035275
	-0.034631
	-0.037530
	-0.041717
	-0.039463
	-0.043650
	-0.036563
	-0.037208
	-0.027544
	-0.023034
	-0.022712
	-0.018846
	-0.024967
	-0.019813
	-0.022712
	-0.021423
	-0.022390
	-0.027544
	-0.024000
	-0.030121
	-0.029799
	-0.034308
	-0.038174
	-0.038174
	-0.043328
	-0.038818
	-0.039785
	-0.034308
	-0.027222
	-0.025611
	-0.018202
	-0.020135
	-0.018846
	-0.020135
	-0.020135
	-0.018846
	-0.023356
	-0.020779
	-0.025611
	-0.024645
	-0.029477
	-0.033664
	-0.033986
	-0.037852
	-0.037208
	-0.038818
	-0.036885
	-0.031409
	-0.025289
	-0.021101
	-0.015625
	-0.016914
	-0.017880
	-0.021101
	-0.017236
	-0.018846
	-0.021423
	-0.018524
	-0.024645
	-0.022390
	-0.030765
	-0.030765
	-0.032376
	-0.036885
	-0.033986
	-0.039785
	-0.034953
	-0.033020
	-0.024000
	-0.019813
	-0.018202
	-0.015303
	-0.021101
	-0.016914
	-0.018524
	-0.017558
	-0.018202
	-0.021423
	-0.019813
	-0.026900
	-0.026900
	-0.030443
	-0.033020
	-0.032698
	-0.038818
	-0.034308
	-0.035919
	-0.029154
	-0.021745
	-0.022390
	-0.012404
	-0.016914
	-0.014337
	-0.016269
	-0.017236
	-0.014659
	-0.019813
	-0.017236
	-0.022068
	-0.022068
	-0.027544
	-0.030121
	-0.030443
	-0.034631
	-0.033342
	-0.036241
	-0.033986
	-0.029799
	-0.024000
	-0.016914
	-0.013048
	-0.015303
	-0.014659
	-0.020135
	-0.012082
	-0.016591
	-0.015625
	-0.017558
	-0.020779
	-0.018846
	-0.028832
	-0.025289
	-0.032054
	-0.033020
	-0.033342
	-0.035919
	-0.031731
	-0.032698
	-0.021101
	-0.021745
	-0.013370
	-0.013692
	-0.017558
	-0.014014
	-0.017880
	-0.013048
	-0.011437
	-0.009827
	-0.011115
	-0.014659
	-0.010149
	-0.012404
	-0.005639
	-0.005961
	-0.002096
	0.000481
	0.000159
	0.008857
	0.016588
	0.028184
	0.036560
	0.036237
	0.039781
	0.039137
	0.043969
	0.048478
	0.050411
	0.051377
	0.046546
	0.050089
	0.049767
	0.052988
	0.055887
	0.054277
	0.058786
	0.060075
	0.068772
	0.075537
	0.087778
	0.096797
	0.104206
	0.110005
	0.109683
	0.114515
	0.111615
	0.118058
	0.117736
	0.119024
	0.116447
	0.117414
	0.117092
	0.113548
	0.114837
	0.113226
	0.117414
	0.113870
	0.117414
	0.120957
	0.123534
	0.131265
	0.132232
	0.129655
	0.124178
	0.119991
	0.116125
	0.104851
	0.105173
	0.100019
	0.100019
	0.090033
	0.083268
	0.075859
	0.064585
	0.063940
	0.052344
	0.049445
	0.045579
	0.043969
	0.045901
	0.039137
	0.041392
	0.032372
	0.030761
	0.023997
	0.018843
	0.015943
	0.005957
	0.005957
	-0.012404
	-0.013692
	-0.028832
	-0.031087
	-0.041073
	-0.047838
	-0.051703
	-0.062011
	-0.062011
	-0.062978
	-0.058468
	-0.055891
	-0.053958
	-0.052992
	-0.063300
	-0.062656
	-0.072642
	-0.071675
	-0.079084
	-0.083594
	-0.087782
	-0.098090
	-0.099378
	-0.107109
	-0.109364
	-0.116773
	-0.124182
	-0.124504
	-0.128370
	-0.121605
	-0.119028
	-0.114518
	-0.107431
	-0.111941
	-0.110008
	-0.110653
	-0.102922
	-0.103566
	-0.105499
	-0.102922
	-0.109364
	-0.102922
	-0.107109
	-0.099700
	-0.099056
	-0.099056
	-0.092291
	-0.081983
	-0.065877
	-0.043006
	-0.001774
	0.135775
	0.239822
	0.448239
	0.582245
	0.800648
	0.940774
	1.120523
	1.225859
	1.326042
	1.379193
	1.407541
	1.420104
	1.413017
	1.380804
	1.330874
	1.258072
	1.188814
	1.101839
	1.030648
	0.947539
	0.882147
	0.816432
	0.763281
	0.684037
	0.619934
	0.542301
	0.483029
	0.397987
	0.338071
	0.253996
	0.203744
	0.113548
	0.069739
	0.014011
	-0.011437
	-0.052025
	-0.071031
	-0.109042
	-0.129014
	-0.168313
	-0.193439
	-0.232739
	-0.262052
	-0.291044
	-0.311338
	-0.336786
	-0.346450
	-0.353537
	-0.351604
	-0.347738
	-0.336464
	-0.325834
	-0.306506
	-0.292977
	-0.274938
	-0.256898
	-0.246268
	-0.230484
	-0.220176
	-0.198916
	-0.184420
	-0.170890
	-0.164770
	-0.163159
	-0.154784
	-0.151885
	-0.145765
	-0.143510
	-0.142543
	-0.143188
	-0.142865
	-0.139644
	-0.139000
	-0.134812
	-0.136745
	-0.136423
	-0.135134
	-0.135134
	-0.123538
	-0.114840
	-0.108398
	-0.102277
	-0.106787
	-0.102599
	-0.102277
	-0.094868
	-0.097768
	-0.097768
	-0.098734
	-0.101955
	-0.101633
	-0.109042
	-0.108398
	-0.112908
	-0.111941
	-0.111941
	-0.114196
	-0.109364
	-0.108398
	-0.099056
	-0.096479
	-0.089392
	-0.089392
	-0.092614
	-0.090037
	-0.092936
	-0.088426
	-0.091969
	-0.094546
	-0.094546
	-0.101955
	-0.094224
	-0.097123
	-0.096157
	-0.097445
	-0.099700
	-0.096157
	-0.099056
	-0.088426
	-0.084882
	-0.080051
	-0.068454
	-0.069420
	-0.066843
	-0.067488
	-0.062011
	-0.059112
	-0.062656
	-0.059757
	-0.063300
	-0.064588
	-0.062978
	-0.064266
	-0.063944
	-0.065877
	-0.066521
	-0.065877
	-0.068132
	-0.060401
	-0.055247
	-0.046871
	-0.036563
	-0.040751
	-0.037530
	-0.037208
	-0.030443
	-0.031087
	-0.032054
	-0.028188
	-0.031409
	-0.027544
	-0.034631
	-0.032376
	-0.034308
	-0.033342
	-0.028510
	-0.033342
	-0.026900
	-0.020135
	-0.008860
	-0.003706
	-0.001774
	0.003380
	-0.002418
	0.006280
	0.006602
	0.005313
	0.007890
	0.006602
	0.013366
	0.011434
	0.014977
	0.017232
	0.016910
	0.022064
	0.018843
	0.024319
	0.024641
	0.033983
	0.047512
	0.051700
	0.064585
	0.063940
	0.071027
	0.072316
	0.076181
	0.076503
	0.074571
	0.081657
	0.080691
	0.084879
	0.085201
	0.084557
	0.085845
	0.080047
	0.088100
	0.086489
	0.095187
	0.101629
	0.111293
	0.120635
	0.129332
	0.133842
	0.134164
	0.130621
	0.138030
	0.136097
	0.138674
	0.135775
	0.139963
	0.139640
	0.134809
	0.134809
	0.128688
	0.128688
	0.123856
	0.128044
	0.132876
	0.138352
	0.145117
	0.145439
	0.152848
	0.152203
	0.151559
	0.152203
	0.149304
	0.150271
	0.144795
	0.151559
	0.148660
	0.149304
	0.146727
	0.141895
	0.140929
	0.134486
	0.138030
	0.133520
	0.137063
	0.141895
	0.145117
	0.150593
	0.152848
	0.155747
	0.150271
	0.153492
	0.151881
	0.144795
	0.143506
	0.135775
	0.137708
	0.131587
	0.130299
	0.119991
	0.114192
	0.109038
	0.100985
	0.103240
	0.097764
	0.100019
	0.104206
	0.106461
	0.111937
	0.108394
	0.107428
	0.100663
	0.100019
	0.091966
	0.086489
	0.081980
	0.077792
	0.075215
	0.065551
	0.062008
	0.055565
	0.054921
	0.049123
	0.044291
	0.041714
	0.040425
	0.044935
	0.041714
	0.047190
	0.043324
	0.038492
	0.036560
	0.029473
	0.028506
	0.018198
	0.018520
	0.013366
	0.010467
	0.002414
	-0.006606
	-0.004673
	-0.012082
	-0.015303
	-0.020457
	-0.024323
	-0.021423
	-0.016914
	-0.012082
	-0.014014
	-0.015625
	-0.022390
	-0.024000
	-0.023678
	-0.029799
	-0.032376
	-0.036885
	-0.036885
	-0.041395
	-0.045261
	-0.044939
	-0.051703
	-0.053958
	-0.061689
	-0.059757
	-0.060079
	-0.053958
	-0.047516
	-0.046549
	-0.038174
	-0.044294
	-0.040107
	-0.048804
	-0.045905
	-0.047516
	-0.051059
	-0.050093
	-0.057824
	-0.054603
	-0.063944
	-0.062011
	-0.063944
	-0.067165
	-0.065555
	-0.070387
	-0.063944
	-0.062656
	-0.053958
	-0.055569
	-0.052670
	-0.053636
	-0.060401
	-0.058790
	-0.064266
	-0.062011
	-0.065555
	-0.069098
	-0.069742
	-0.080051
	-0.080051
	-0.085527
	-0.091003
	-0.095835
	-0.100989
	-0.097445
	-0.098090
	-0.089392
	-0.083916
	-0.082305
	-0.074252
	-0.079728
	-0.076507
	-0.077796
	-0.076829
	-0.077474
	-0.080051
	-0.079728
	-0.083916
	-0.081983
	-0.089070
	-0.088104
	-0.091003
	-0.095835
	-0.094224
	-0.096157
	-0.091003
	-0.088748
	-0.080695
	-0.075219
	-0.072964
	-0.069420
	-0.073286
	-0.072964
	-0.070709
	-0.071353
	-0.071997
	-0.076829
	-0.074252
	-0.080051
	-0.081017
	-0.086493
	-0.086171
	-0.085527
	-0.090681
	-0.087782
	-0.090359
	-0.081339
	-0.074897
	-0.071997
	-0.063622
	-0.068776
	-0.065555
	-0.069098
	-0.066199
	-0.068454
	-0.071031
	-0.067810
	-0.075219
	-0.072964
	-0.079084
	-0.079728
	-0.082305
	-0.084560
	-0.082628
	-0.087460
	-0.082628
	-0.079728
	-0.069420
	-0.064588
	-0.060401
	-0.060079
	-0.067165
	-0.061367
	-0.062978
	-0.062656
	-0.064266
	-0.064911
	-0.064266
	-0.071675
	-0.071031
	-0.075219
	-0.077151
	-0.077796
	-0.080695
	-0.078762
	-0.081339
	-0.073286
	-0.066521
	-0.063622
	-0.056213
	-0.059757
	-0.058468
	-0.059112
	-0.058468
	-0.059112
	-0.060401
	-0.061689
	-0.065555
	-0.066521
	-0.071675
	-0.069420
	-0.073608
	-0.076507
	-0.074574
	-0.080051
	-0.073608
	-0.070709
	-0.062011
	-0.056213
	-0.054603
	-0.052348
	-0.055891
	-0.052670
	-0.054603
	-0.056857
	-0.054925
	-0.059112
	-0.057824
	-0.062334
	-0.064266
	-0.066521
	-0.071353
	-0.070065
	-0.073930
	-0.069742
	-0.070387
	-0.066199
	-0.057180
	-0.056857
	-0.046549
	-0.052670
	-0.048804
	-0.050415
	-0.052348
	-0.050093
	-0.054603
	-0.051381
	-0.057180
	-0.057180
	-0.061045
	-0.065877
	-0.065233
	-0.071353
	-0.067488
	-0.069420
	-0.067165
	-0.061045
	-0.058790
	-0.048160
	-0.045261
	-0.044617
	-0.047838
	-0.048804
	-0.044939
	-0.049448
	-0.048482
	-0.050415
	-0.052992
	-0.053636
	-0.059757
	-0.058790
	-0.063622
	-0.065877
	-0.064911
	-0.069098
	-0.061689
	-0.058790
	-0.050093
	-0.045583
	-0.043650
	-0.042362
	-0.048160
	-0.042040
	-0.043328
	-0.045905
	-0.044617
	-0.049771
	-0.047194
	-0.053314
	-0.056213
	-0.056213
	-0.060723
	-0.059434
	-0.065233
	-0.060723
	-0.059757
	-0.056857
	-0.043972
	-0.046549
	-0.037208
	-0.041717
	-0.041073
	-0.040429
	-0.043006
	-0.039140
	-0.045261
	-0.042684
	-0.045905
	-0.049126
	-0.050415
	-0.057502
	-0.054603
	-0.060079
	-0.058468
	-0.062978
	-0.059757
	-0.051059
	-0.048482
	-0.040751
	-0.038496
	-0.039463
	-0.038818
	-0.042040
	-0.035275
	-0.041073
	-0.039140
	-0.041717
	-0.043328
	-0.044294
	-0.052992
	-0.050415
	-0.056535
	-0.054603
	-0.055569
	-0.057824
	-0.052992
	-0.052992
	-0.039785
	-0.039463
	-0.033020
	-0.033664
	-0.038174
	-0.034953
	-0.037530
	-0.033986
	-0.038818
	-0.036885
	-0.040429
	-0.045261
	-0.046549
	-0.052348
	-0.047516
	-0.053636
	-0.051703
	-0.052670
	-0.052670
	-0.043650
	-0.043328
	-0.033664
	-0.032698
	-0.031087
	-0.034308
	-0.032376
	-0.032054
	-0.033986
	-0.035275
	-0.039140
	-0.037852
	-0.041717
	-0.043006
	-0.047516
	-0.048160
	-0.048482
	-0.051703
	-0.050093
	-0.051703
	-0.043006
	-0.037852
	-0.031087
	-0.027866
	-0.029154
	-0.030121
	-0.032698
	-0.029154
	-0.033986
	-0.030121
	-0.035597
	-0.033664
	-0.037852
	-0.044294
	-0.041717
	-0.048160
	-0.044939
	-0.051059
	-0.046871
	-0.047516
	-0.041395
	-0.033986
	-0.032698
	-0.024323
	-0.030443
	-0.025933
	-0.029154
	-0.027544
	-0.027866
	-0.033986
	-0.029154
	-0.036885
	-0.033020
	-0.040429
	-0.041717
	-0.041073
	-0.046549
	-0.043650
	-0.045583
	-0.043972
	-0.039463
	-0.034631
	-0.024967
	-0.025289
	-0.022068
	-0.025289
	-0.027866
	-0.025289
	-0.029154
	-0.026900
	-0.029154
	-0.032698
	-0.033986
	-0.040429
	-0.037530
	-0.043650
	-0.042040
	-0.042362
	-0.046871
	-0.042362
	-0.040751
	-0.027866
	-0.026577
	-0.022712
	-0.023034
	-0.028510
	-0.023034
	-0.026255
	-0.024000
	-0.025933
	-0.029799
	-0.029154
	-0.033986
	-0.033986
	-0.038496
	-0.038496
	-0.040429
	-0.045261
	-0.039463
	-0.043006
	-0.033342
	-0.027866
	-0.023034
	-0.018202
	-0.023356
	-0.021745
	-0.025611
	-0.021423
	-0.023034
	-0.024645
	-0.026255
	-0.030443
	-0.030443
	-0.035919
	-0.034308
	-0.037852
	-0.040429
	-0.038818
	-0.043328
	-0.036885
	-0.035275
	-0.024645
	-0.023034
	-0.016914
	-0.018524
	-0.024000
	-0.019813
	-0.023678
	-0.019813
	-0.023678
	-0.024000
	-0.024645
	-0.031409
	-0.030443
	-0.037208
	-0.033342
	-0.039785
	-0.039463
	-0.039463
	-0.038496
	-0.030443
	-0.027544
	-0.017880
	-0.018524
	-0.017236
	-0.019168
	-0.019168
	-0.018524
	-0.022390
	-0.019813
	-0.025289
	-0.024323
	-0.028832
	-0.030121
	-0.030121
	-0.036563
	-0.036241
	-0.040107
	-0.036241
	-0.036563
	-0.030121
	-0.022068
	-0.021745
	-0.013048
	-0.019168
	-0.016269
	-0.019168
	-0.017236
	-0.016914
	-0.020135
	-0.019813
	-0.025289
	-0.023356
	-0.028832
	-0.028832
	-0.032376
	-0.035597
	-0.035275
	-0.038174
	-0.033986
	-0.028832
	-0.021101
	-0.017236
	-0.014659
	-0.014014
	-0.018202
	-0.016914
	-0.016269
	-0.017236
	-0.018202
	-0.022068
	-0.023034
	-0.025933
	-0.027544
	-0.029799
	-0.032376
	-0.032376
	-0.037208
	-0.033986
	-0.033664
	-0.025933
	-0.020457
	-0.017558
	-0.012726
	-0.016914
	-0.015303
	-0.015947
	-0.014659
	-0.015303
	-0.016269
	-0.016591
	-0.022712
	-0.021101
	-0.027866
	-0.028510
	-0.031409
	-0.034631
	-0.031731
	-0.034631
	-0.029477
	-0.027544
	-0.019168
	-0.013048
	-0.013048
	-0.011115
	-0.015625
	-0.012082
	-0.012404
	-0.013692
	-0.014337
	-0.018202
	-0.017236
	-0.023034
	-0.025933
	-0.026577
	-0.030765
	-0.028832
	-0.033342
	-0.030443
	-0.029799
	-0.025289
	-0.018524
	-0.014659
	-0.009183
	-0.014014
	-0.012404
	-0.012404
	-0.011437
	-0.010793
	-0.014659
	-0.013370
	-0.018202
	-0.019491
	-0.023356
	-0.027222
	-0.026577
	-0.032376
	-0.029154
	-0.030765
	-0.028510
	-0.021745
	-0.019168
	-0.011760
	-0.009827
	-0.009827
	-0.010471
	-0.010149
	-0.008860
	-0.008860
	-0.005961
	-0.005639
	-0.007894
	-0.007572
	-0.007572
	-0.002740
	-0.003384
	0.001770
	0.001126
	0.004025
	0.006280
	0.018843
	0.027862
	0.036560
	0.044291
	0.041069
	0.044935
	0.048156
	0.052666
	0.056209
	0.055243
	0.056854
	0.055887
	0.057176
	0.058464
	0.057498
	0.062008
	0.062652
	0.067162
	0.071349
	0.076503
	0.087134
	0.095187
	0.104529
	0.113548
	0.115159
	0.117414
	0.115481
	0.121279
	0.121279
	0.121923
	0.121923
	0.120635
	0.121601
	0.117736
	0.118058
	0.117736
	0.119991
	0.119024
	0.119024
	0.121601
	0.124500
	0.132232
	0.134809
	0.134809
	0.130299
	0.124178
	0.121279
	0.113226
	0.112260
	0.106139
	0.104529
	0.097764
	0.089389
	0.082624
	0.073926
	0.069417
	0.061686
	0.056854
	0.050733
	0.045257
	0.046868
	0.044291
	0.042358
	0.041714
	0.033660
	0.030761
	0.022708
	0.021742
	0.014333
	0.007890
	-0.001451
	-0.012404
	-0.018524
	-0.027866
	-0.034631
	-0.039785
	-0.049126
	-0.052348
	-0.060401
	-0.059112
	-0.059434
	-0.053314
	-0.050737
	-0.048804
	-0.054603
	-0.062978
	-0.062334
	-0.066521
	-0.072642
	-0.076829
	-0.085849
	-0.086493
	-0.092936
	-0.096157
	-0.102922
	-0.110653
	-0.114518
	-0.120317
	-0.119028
	-0.119672
	-0.119028
	-0.110975
	-0.109686
	-0.101955
	-0.106465
	-0.102277
	-0.097768
	-0.100022
	-0.097123
	-0.100022
	-0.098412
	-0.096479
	-0.098734
	-0.092291
	-0.095835
	-0.089714
	-0.089070
	-0.076507
	-0.064266
	-0.045261
	-0.018524
	0.123534
	0.211475
	0.432777
	0.554219
	0.786797
	0.914360
	1.109892
	1.214263
	1.322498
	1.374683
	1.408185
	1.426546
	1.422037
	1.394656
	1.342148
	1.278366
	1.202022
	1.123100
	1.038380
	0.968155
	0.889234
	0.829318
	0.771656
	0.699822
	0.633785
	0.554864
	0.495914
	0.408617
	0.349346
	0.269458
	0.213408
	0.136741
	0.075859
	0.032050
	-0.004995
	-0.040107
	-0.062656
	-0.104210
	-0.121283
	-0.168958
	-0.185064
	-0.229196
	-0.246590
	-0.284601
	-0.301352
	-0.326800
	-0.343873
	-0.344839
	-0.349993
	-0.338074
	-0.332920
	-0.318747
	-0.303285
	-0.289433
	-0.271394
	-0.255932
	-0.240470
	-0.229196
	-0.217277
	-0.199560
	-0.185708
	-0.168636
	-0.159938
	-0.155106
	-0.151885
	-0.146731
	-0.139966
	-0.139644
	-0.135779
	-0.138678
	-0.133846
	-0.134812
	-0.133524
	-0.129980
	-0.133846
	-0.130947
	-0.132557
	-0.130625
	-0.124182
	-0.115807
	-0.106465
	-0.104210
	-0.096801
	-0.100022
	-0.096157
	-0.091647
	-0.094224
	-0.091003
	-0.096479
	-0.092614
	-0.094868
	-0.098734
	-0.100022
	-0.105177
	-0.105177
	-0.107754
	-0.107431
	-0.107109
	-0.105499
	-0.100345
	-0.093258
	-0.086171
	-0.085527
	-0.085849
	-0.087460
	-0.086493
	-0.084882
	-0.087782
	-0.087460
	-0.088748
	-0.089714
	-0.089070
	-0.091325
	-0.088748
	-0.093580
	-0.091647
	-0.092291
	-0.093580
	-0.089392
	-0.086493
	-0.076829
	-0.070709
	-0.061367
	-0.062011
	-0.064588
	-0.056535
	-0.058790
	-0.053958
	-0.058468
	-0.057180
	-0.057502
	-0.059757
	-0.055569
	-0.062334
	-0.060401
	-0.063944
	-0.064266
	-0.062978
	-0.063622
	-0.053958
	-0.049126
	-0.038174
	-0.033664
	-0.033986
	-0.030443
	-0.029477
	-0.024000
	-0.028832
	-0.023356
	-0.023034
	-0.023356
	-0.024645
	-0.029477
	-0.030121
	-0.032054
	-0.026577
	-0.027544
	-0.025933
	-0.018524
	-0.011115
	-0.002418
	-0.000163
	0.005957
	0.001770
	0.007890
	0.011434
	0.011112
	0.015299
	0.012722
	0.017554
	0.016910
	0.020453
	0.021742
	0.022708
	0.027218
	0.024963
	0.028506
	0.026896
	0.035593
	0.042680
	0.054599
	0.062652
	0.070061
	0.074571
	0.074571
	0.080369
	0.079403
	0.081980
	0.081335
	0.084234
	0.087778
	0.087778
	0.091643
	0.089389
	0.088744
	0.089389
	0.092288
	0.096797
	0.099052
	0.112582
	0.119346
	0.130943
	0.135775
	0.135453
	0.137708
	0.139318
	0.142862
	0.140929
	0.142217
	0.143184
	0.145117
	0.143184
	0.137386
	0.138674
	0.130943
	0.133520
	0.129332
	0.136741
	0.138352
	0.144795
	0.150915
	0.149304
	0.157035
	0.151559
	0.155425
	0.153492
	0.154458
	0.152526
	0.149949
	0.156713
	0.150593
	0.151881
	0.148338
	0.145439
	0.143506
	0.138674
	0.141573
	0.136741
	0.141251
	0.145761
	0.149304
	0.155103
	0.155103
	0.156713
	0.152203
	0.155747
	0.149949
	0.143828
	0.142217
	0.138996
	0.138674
	0.131909
	0.126111
	0.120957
	0.111937
	0.106461
	0.100019
	0.104206
	0.096475
	0.104851
	0.107750
	0.111293
	0.115481
	0.109038
	0.106783
	0.101307
	0.096153
	0.093254
	0.083268
	0.083590
	0.079080
	0.074249
	0.066517
	0.059109
	0.060075
	0.052022
	0.049123
	0.045257
	0.039781
	0.043646
	0.041714
	0.048156
	0.049445
	0.042680
	0.041069
	0.032694
	0.034627
	0.021097
	0.021097
	0.018198
	0.013044
	0.008857
	-0.001774
	-0.000163
	-0.006606
	-0.012726
	-0.014337
	-0.024000
	-0.019491
	-0.018524
	-0.010793
	-0.011760
	-0.014981
	-0.019813
	-0.026577
	-0.020457
	-0.025289
	-0.030765
	-0.031087
	-0.037208
	-0.034631
	-0.041395
	-0.040429
	-0.043972
	-0.053958
	-0.054280
	-0.059434
	-0.056857
	-0.056213
	-0.051381
	-0.043650
	-0.042040
	-0.035275
	-0.039140
	-0.042040
	-0.043650
	-0.048804
	-0.047516
	-0.050415
	-0.049126
	-0.052348
	-0.053636
	-0.058146
	-0.062334
	-0.062334
	-0.065233
	-0.063622
	-0.065555
	-0.062656
	-0.057180
	-0.057824
	-0.052025
	-0.051059
	-0.052992
	-0.058146
	-0.059757
	-0.058790
	-0.062656
	-0.061367
	-0.067810
	-0.070387
	-0.074574
	-0.081661
	-0.084238
	-0.093902
	-0.092614
	-0.095835
	-0.096801
	-0.092291
	-0.089070
	-0.079728
	-0.077796
	-0.072642
	-0.074574
	-0.077474
	-0.074574
	-0.076507
	-0.074252
	-0.076829
	-0.077474
	-0.079406
	-0.084882
	-0.085205
	-0.087782
	-0.088748
	-0.091325
	-0.091969
	-0.090681
	-0.091647
	-0.083272
	-0.077151
	-0.071997
	-0.067488
	-0.072320
	-0.068776
	-0.071031
	-0.069742
	-0.068454
	-0.073608
	-0.071675
	-0.076507
	-0.078440
	-0.080373
	-0.084238
	-0.082628
	-0.088426
	-0.085205
	-0.086815
	-0.085205
	-0.076507
	-0.073930
	-0.064266
	-0.066199
	-0.064588
	-0.066199
	-0.065555
	-0.064911
	-0.069420
	-0.064588
	-0.069098
	-0.068132
	-0.072964
	-0.076829
	-0.077151
	-0.082628
	-0.081983
	-0.084238
	-0.081339
	-0.080695
	-0.076507
	-0.065877
	-0.063944
	-0.057824
	-0.059757
	-0.062656
	-0.060079
	-0.060723
	-0.061045
	-0.062334
	-0.063300
	-0.065877
	-0.070387
	-0.070709
	-0.074897
	-0.075219
	-0.077474
	-0.080051
	-0.077474
	-0.076185
	-0.067488
	-0.063300
	-0.059757
	-0.053636
	-0.059757
	-0.056535
	-0.056535
	-0.057180
	-0.055569
	-0.062656
	-0.058468
	-0.063622
	-0.063300
	-0.066521
	-0.070709
	-0.070387
	-0.076185
	-0.074574
	-0.074574
	-0.072642
	-0.063944
	-0.061689
	-0.051381
	-0.053314
	-0.050737
	-0.052348
	-0.053636
	-0.051703
	-0.056535
	-0.052348
	-0.057502
	-0.056857
	-0.061689
	-0.064588
	-0.063944
	-0.071031
	-0.067488
	-0.072642
	-0.070387
	-0.067165
	-0.063944
	-0.055247
	-0.055247
	-0.044294
	-0.052348
	-0.049126
	-0.048482
	-0.050415
	-0.048804
	-0.056213
	-0.052025
	-0.057180
	-0.057824
	-0.061367
	-0.064588
	-0.063944
	-0.069742
	-0.066521
	-0.069742
	-0.065233
	-0.059434
	-0.052025
	-0.046227
	-0.044617
	-0.044617
	-0.048482
	-0.045261
	-0.045261
	-0.047838
	-0.047194
	-0.051703
	-0.050737
	-0.055891
	-0.056857
	-0.058468
	-0.063300
	-0.063300
	-0.066521
	-0.063622
	-0.063944
	-0.053958
	-0.049448
	-0.044294
	-0.039463
	-0.045261
	-0.042684
	-0.043650
	-0.042362
	-0.043006
	-0.045583
	-0.044939
	-0.051381
	-0.051059
	-0.058146
	-0.055247
	-0.061045
	-0.060079
	-0.060401
	-0.062334
	-0.058790
	-0.059434
	-0.043972
	-0.042362
	-0.034631
	-0.040107
	-0.039463
	-0.038174
	-0.043006
	-0.038174
	-0.044294
	-0.041395
	-0.046227
	-0.048804
	-0.051703
	-0.056857
	-0.053958
	-0.062334
	-0.057824
	-0.057824
	-0.056535
	-0.047838
	-0.045261
	-0.035919
	-0.037208
	-0.035919
	-0.037208
	-0.038496
	-0.035275
	-0.041717
	-0.037208
	-0.042684
	-0.042040
	-0.044939
	-0.050737
	-0.048482
	-0.055569
	-0.052992
	-0.055891
	-0.053314
	-0.053314
	-0.047516
	-0.037852
	-0.037530
	-0.030121
	-0.036241
	-0.033986
	-0.034308
	-0.035275
	-0.034308
	-0.039785
	-0.036563
	-0.042684
	-0.043006
	-0.045261
	-0.050415
	-0.051059
	-0.055569
	-0.053314
	-0.054603
	-0.050093
	-0.043650
	-0.038818
	-0.031731
	-0.032376
	-0.031731
	-0.035275
	-0.032054
	-0.032054
	-0.034631
	-0.033342
	-0.036885
	-0.035919
	-0.043328
	-0.043650
	-0.046227
	-0.049771
	-0.049126
	-0.052348
	-0.049126
	-0.049448
	-0.038174
	-0.036563
	-0.029477
	-0.024967
	-0.033020
	-0.028832
	-0.032054
	-0.028510
	-0.032054
	-0.033020
	-0.033342
	-0.037208
	-0.036885
	-0.045261
	-0.042362
	-0.048804
	-0.046227
	-0.048482
	-0.049448
	-0.043972
	-0.040751
	-0.031087
	-0.030443
	-0.022390
	-0.028832
	-0.026577
	-0.024967
	-0.029477
	-0.027866
	-0.033664
	-0.031087
	-0.034953
	-0.037852
	-0.038174
	-0.044294
	-0.043006
	-0.046871
	-0.044294
	-0.044617
	-0.044939
	-0.034953
	-0.033342
	-0.024000
	-0.025933
	-0.024967
	-0.027222
	-0.024323
	-0.025611
	-0.027866
	-0.026900
	-0.033342
	-0.029799
	-0.037208
	-0.036241
	-0.039140
	-0.043006
	-0.043006
	-0.047194
	-0.042362
	-0.043650
	-0.033020
	-0.030443
	-0.024967
	-0.020779
	-0.026577
	-0.023034
	-0.026255
	-0.022068
	-0.023356
	-0.026900
	-0.025933
	-0.032054
	-0.030443
	-0.037208
	-0.037530
	-0.038818
	-0.043328
	-0.040107
	-0.045583
	-0.038174
	-0.032054
	-0.027222
	-0.019813
	-0.022390
	-0.020779
	-0.024645
	-0.020779
	-0.021745
	-0.023678
	-0.024645
	-0.029154
	-0.027222
	-0.033664
	-0.034308
	-0.035919
	-0.040751
	-0.038496
	-0.043650
	-0.037852
	-0.038496
	-0.030765
	-0.024323
	-0.023034
	-0.015625
	-0.024000
	-0.020135
	-0.021745
	-0.022390
	-0.021101
	-0.026255
	-0.022068
	-0.028510
	-0.029799
	-0.030765
	-0.036885
	-0.033664
	-0.041073
	-0.035597
	-0.038174
	-0.036241
	-0.028510
	-0.025933
	-0.016269
	-0.019168
	-0.017880
	-0.020779
	-0.021101
	-0.020135
	-0.024000
	-0.020779
	-0.025289
	-0.023356
	-0.028188
	-0.033664
	-0.031087
	-0.038818
	-0.033986
	-0.037852
	-0.036241
	-0.035275
	-0.031087
	-0.019813
	-0.018846
	-0.012726
	-0.018202
	-0.018202
	-0.016591
	-0.021745
	-0.018202
	-0.022390
	-0.021745
	-0.022390
	-0.028510
	-0.027222
	-0.033986
	-0.032054
	-0.035275
	-0.034631
	-0.034308
	-0.035919
	-0.023678
	-0.022712
	-0.014337
	-0.011437
	-0.015303
	-0.014659
	-0.019491
	-0.014659
	-0.020457
	-0.017236
	-0.019813
	-0.021745
	-0.023356
	-0.029477
	-0.028188
	-0.035275
	-0.031409
	-0.034308
	-0.035275
	-0.031409
	-0.027222
	-0.017236
	-0.016914
	-0.009505
	-0.016591
	-0.014014
	-0.013370
	-0.016591
	-0.014014
	-0.019168
	-0.015303
	-0.022068
	-0.022068
	-0.022712
	-0.027544
	-0.027544
	-0.034308
	-0.031087
	-0.033342
	-0.029799
	-0.019491
	-0.018846
	-0.009505
	-0.010471
	-0.011115
	-0.011437
	-0.015303
	-0.011115
	-0.018202
	-0.015303
	-0.016914
	-0.019491
	-0.021101
	-0.027866
	-0.023678
	-0.031409
	-0.030443
	-0.030443
	-0.033020
	-0.027222
	-0.024323
	-0.015303
	-0.012726
	-0.009183
	-0.010793
	-0.015303
	-0.009827
	-0.014337
	-0.012726
	-0.015303
	-0.015625
	-0.016269
	-0.022390
	-0.023034
	-0.027544
	-0.026900
	-0.030121
	-0.029477
	-0.028832
	-0.029799
	-0.019168
	-0.015947
	-0.008860
	-0.008216
	-0.008538
	-0.009505
	-0.012082
	-0.005961
	-0.008538
	-0.004351
	-0.007250
	-0.002418
	-0.003706
	-0.003062
	0.000803
	0.001770
	0.005635
	0.002736
	0.007890
	0.012722
	0.021742
	0.034627
	0.038814
	0.043969
	0.041714
	0.045579
	0.050089
	0.053310
	0.057498
	0.055243
	0.056209
	0.058786
	0.058142
	0.060719
	0.058464
	0.063940
	0.064907
	0.071027
	0.075859
	0.080047
	0.093576
	0.100663
	0.112260
	0.117736
	0.116447
	0.117736
	0.117414
	0.123534
	0.121279
	0.121601
	0.125467
	0.122246
	0.122246
	0.115159
	0.121279
	0.118702
	0.121279
	0.120957
	0.119669
	0.121601
	0.127077
	0.133842
	0.131265
	0.132232
	0.123856
	0.118702
	0.116125
	0.109683
	0.110327
	0.104851
	0.100341
	0.094865
	0.083912
	0.076826
	0.068450
	0.064263
	0.057820
	0.049767
	0.049123
	0.041069
	0.043969
	0.039781
	0.037848
	0.036882
	0.026896
	0.025285
	0.019487
	0.018520
	0.008534
	0.000481
	-0.006606
	-0.020135
	-0.023678
	-0.036563
	-0.037852
	-0.046227
	-0.051703
	-0.057180
	-0.062978
	-0.062011
	-0.059757
	-0.054603
	-0.049771
	-0.055247
	-0.057824
	-0.065233
	-0.064911
	-0.071675
	-0.077151
	-0.081983
	-0.088748
	-0.090037
	-0.095513
	-0.101955
	-0.105821
	-0.118384
	-0.117095
	-0.120317
	-0.119350
	-0.121927
	-0.115807
	-0.110008
	-0.109364
	-0.103888
	-0.103888
	-0.099700
	-0.098090
	-0.097768
	-0.096479
	-0.100345
	-0.096479
	-0.095835
	-0.093258
	-0.091969
	-0.092614
	-0.087782
	-0.076507
	-0.067165
	-0.046227
	-0.035919
	0.103884
	0.184094
	0.404752
	0.528449
	0.758771
	0.889234
	1.087665
	1.196223
	1.314767
	1.368885
	1.412051
	1.424614
	1.425902
	1.405930
	1.346336
	1.298661
	1.205565
	1.141783
	1.047077
	0.977175
	0.899864
	0.834794
	0.776488
	0.708841
	0.638617
	0.569037
	0.498491
	0.428589
	0.352245
	0.282665
	0.218884
	0.147372
	0.088744
	0.033660
	0.003058
	-0.036885
	-0.060401
	-0.098734
	-0.123216
	-0.164770
	-0.189252
	-0.225330
	-0.247557
	-0.276870
	-0.295876
	-0.327444
	-0.338719
	-0.348060
	-0.347094
	-0.340652
	-0.335820
	-0.315848
	-0.309405
	-0.286856
	-0.274938
	-0.256898
	-0.242403
	-0.233383
	-0.220498
	-0.209546
	-0.191829
	-0.173468
	-0.165736
	-0.155106
	-0.155751
	-0.147697
	-0.140933
	-0.142221
	-0.137067
	-0.139000
	-0.135779
	-0.131269
	-0.133202
	-0.128692
	-0.132879
	-0.131913
	-0.131913
	-0.136423
	-0.126759
	-0.125148
	-0.111619
	-0.106787
	-0.104210
	-0.099700
	-0.100667
	-0.092291
	-0.093258
	-0.093258
	-0.092614
	-0.097768
	-0.094868
	-0.099378
	-0.098412
	-0.101955
	-0.106787
	-0.104532
	-0.110653
	-0.108720
	-0.108720
	-0.105821
	-0.096157
	-0.094224
	-0.084238
	-0.086171
	-0.085527
	-0.088104
	-0.087460
	-0.085205
	-0.091003
	-0.087137
	-0.090359
	-0.088104
	-0.087782
	-0.093258
	-0.090037
	-0.096157
	-0.093580
	-0.094546
	-0.096801
	-0.090681
	-0.084238
	-0.074574
	-0.064911
	-0.064911
	-0.064911
	-0.059757
	-0.057824
	-0.054280
	-0.059112
	-0.056213
	-0.059434
	-0.055569
	-0.055247
	-0.059112
	-0.059434
	-0.064911
	-0.063944
	-0.064911
	-0.064588
	-0.059112
	-0.054603
	-0.040107
	-0.035597
	-0.031731
	-0.031409
	-0.030121
	-0.025933
	-0.030121
	-0.024000
	-0.023356
	-0.021745
	-0.022068
	-0.029154
	-0.026900
	-0.029154
	-0.025289
	-0.026577
	-0.026900
	-0.020135
	-0.019168
	-0.003706
	-0.003384
	0.006602
	0.004991
	0.005957
	0.010467
	0.007568
	0.013689
	0.012722
	0.016588
	0.018520
	0.021742
	0.024963
	0.020775
	0.027218
	0.024641
	0.025929
	0.026252
	0.029473
	0.040103
	0.046868
	0.059753
	0.066840
	0.072638
	0.077470
	0.074893
	0.080369
	0.078436
	0.083912
	0.084879
	0.087778
	0.091321
	0.087456
	0.091321
	0.087778
	0.089711
	0.091966
	0.090677
	0.100019
	0.103562
	0.117736
	0.127077
	0.131909
	0.136419
	0.132232
	0.141573
	0.139963
	0.143184
	0.141895
	0.142217
	0.145439
	0.140285
	0.142540
	0.135131
	0.134486
	0.132554
	0.128366
	0.134809
	0.132554
	0.140285
	0.144795
	0.148660
	0.155425
	0.153170
	0.154458
	0.150915
	0.155103
	0.153170
	0.152203
	0.154780
	0.152848
	0.152848
	0.147049
	0.145439
	0.143184
	0.138030
	0.139640
	0.135453
	0.138674
	0.139318
	0.146083
	0.149626
	0.154136
	0.157035
	0.152848
	0.154780
	0.150271
	0.146405
	0.143184
	0.140285
	0.139640
	0.136097
	0.125145
	0.120635
	0.110971
	0.108716
	0.102274
	0.103884
	0.099374
	0.097442
	0.104851
	0.106139
	0.112582
	0.111615
	0.107106
	0.103562
	0.098086
	0.093254
	0.084557
	0.083590
	0.078114
	0.074893
	0.067162
	0.059753
	0.059753
	0.052022
	0.050411
	0.043969
	0.040425
	0.039459
	0.038814
	0.045257
	0.045579
	0.045579
	0.039137
	0.034305
	0.033338
	0.023997
	0.021420
	0.014977
	0.015621
	0.008534
	0.000803
	-0.001129
	-0.006606
	-0.010471
	-0.016914
	-0.022390
	-0.023034
	-0.024000
	-0.014337
	-0.018524
	-0.012082
	-0.018202
	-0.023034
	-0.022712
	-0.028188
	-0.028832
	-0.035275
	-0.034631
	-0.037852
	-0.040429
	-0.041717
	-0.048160
	-0.046549
	-0.057502
	-0.056857
	-0.058468
	-0.060079
	-0.054603
	-0.051059
	-0.040751
	-0.039463
	-0.036241
	-0.041717
	-0.047194
	-0.044294
	-0.047194
	-0.047194
	-0.049126
	-0.053314
	-0.052670
	-0.058790
	-0.059434
	-0.064266
	-0.062011
	-0.063944
	-0.065877
	-0.063622
	-0.064266
	-0.057180
	-0.056857
	-0.049771
	-0.052025
	-0.061689
	-0.059757
	-0.063622
	-0.062011
	-0.064266
	-0.067810
	-0.071675
	-0.077474
	-0.078440
	-0.084882
	-0.089392
	-0.092936
	-0.096479
	-0.094546
	-0.097123
	-0.090681
	-0.085527
	-0.080695
	-0.073286
	-0.074574
	-0.075541
	-0.077796
	-0.075541
	-0.074574
	-0.078440
	-0.077474
	-0.081017
	-0.081017
	-0.084238
	-0.086493
	-0.087460
	-0.092936
	-0.090037
	-0.092936
	-0.090359
	-0.085527
	-0.081661
	-0.073930
	-0.071997
	-0.068776
	-0.069098
	-0.073286
	-0.069742
	-0.072964
	-0.070065
	-0.071675
	-0.074252
	-0.072964
	-0.081661
	-0.079084
	-0.082628
	-0.087137
	-0.083594
	-0.090037
	-0.083916
	-0.084238
	-0.073930
	-0.069098
	-0.066521
	-0.062011
	-0.068132
	-0.064588
	-0.066843
	-0.066843
	-0.065233
	-0.070709
	-0.067488
	-0.071353
	-0.073286
	-0.075541
	-0.082628
	-0.079728
	-0.084238
	-0.080695
	-0.081983
	-0.081017
	-0.069420
	-0.068776
	-0.060079
	-0.061367
	-0.062011
	-0.062011
	-0.063622
	-0.061045
	-0.062334
	-0.064588
	-0.063622
	-0.069420
	-0.069420
	-0.073930
	-0.074252
	-0.076829
	-0.079728
	-0.076829
	-0.079406
	-0.073608
	-0.064911
	-0.062334
	-0.053636
	-0.057180
	-0.056857
	-0.059757
	-0.056535
	-0.059112
	-0.059757
	-0.058790
	-0.064266
	-0.061367
	-0.068454
	-0.069098
	-0.071353
	-0.075541
	-0.072642
	-0.076829
	-0.072964
	-0.070709
	-0.064266
	-0.057180
	-0.055569
	-0.050737
	-0.056857
	-0.054603
	-0.054603
	-0.057824
	-0.054280
	-0.059757
	-0.056213
	-0.060401
	-0.062334
	-0.064266
	-0.071031
	-0.067488
	-0.072964
	-0.070065
	-0.069742
	-0.070065
	-0.058468
	-0.058146
	-0.048482
	-0.050737
	-0.052348
	-0.051059
	-0.053958
	-0.050093
	-0.054603
	-0.051059
	-0.055247
	-0.055247
	-0.057824
	-0.063944
	-0.063300
	-0.069420
	-0.064911
	-0.069742
	-0.065877
	-0.062334
	-0.059112
	-0.049771
	-0.047516
	-0.044617
	-0.045905
	-0.047516
	-0.045583
	-0.049448
	-0.048482
	-0.052025
	-0.048160
	-0.052025
	-0.057824
	-0.057180
	-0.063622
	-0.061045
	-0.064266
	-0.063944
	-0.063300
	-0.062334
	-0.051381
	-0.051059
	-0.043328
	-0.043650
	-0.048160
	-0.044294
	-0.045905
	-0.043328
	-0.044939
	-0.047516
	-0.048160
	-0.052992
	-0.053636
	-0.054925
	-0.059112
	-0.060079
	-0.062656
	-0.060079
	-0.060723
	-0.058146
	-0.047516
	-0.048160
	-0.038496
	-0.042040
	-0.042684
	-0.040429
	-0.043972
	-0.039463
	-0.046549
	-0.042362
	-0.045583
	-0.048804
	-0.049771
	-0.055247
	-0.052025
	-0.059112
	-0.058468
	-0.057502
	-0.060723
	-0.052348
	-0.047838
	-0.040107
	-0.037852
	-0.038174
	-0.038174
	-0.040429
	-0.037208
	-0.038174
	-0.037852
	-0.039140
	-0.043972
	-0.043972
	-0.047838
	-0.050737
	-0.052348
	-0.055891
	-0.054603
	-0.056213
	-0.054603
	-0.052025
	-0.047516
	-0.039785
	-0.036885
	-0.034308
	-0.034953
	-0.038174
	-0.034308
	-0.037852
	-0.036563
	-0.038496
	-0.042362
	-0.040429
	-0.048482
	-0.048482
	-0.050415
	-0.053958
	-0.053636
	-0.059434
	-0.051381
	-0.050737
	-0.043006
	-0.036241
	-0.034631
	-0.030443
	-0.034631
	-0.033020
	-0.033020
	-0.035275
	-0.033342
	-0.036885
	-0.036563
	-0.038496
	-0.043972
	-0.045905
	-0.049126
	-0.052348
	-0.051059
	-0.054603
	-0.048804
	-0.046227
	-0.038818
	-0.033342
	-0.030765
	-0.027222
	-0.032698
	-0.028510
	-0.027544
	-0.032376
	-0.030765
	-0.035919
	-0.032698
	-0.037208
	-0.041073
	-0.041717
	-0.046549
	-0.044939
	-0.050737
	-0.049126
	-0.049771
	-0.047194
	-0.036241
	-0.035275
	-0.024323
	-0.027222
	-0.028188
	-0.028188
	-0.030121
	-0.028510
	-0.031731
	-0.031731
	-0.032376
	-0.036241
	-0.036563
	-0.040751
	-0.043328
	-0.043650
	-0.047516
	-0.047194
	-0.045905
	-0.044617
	-0.032054
	-0.032376
	-0.023034
	-0.024000
	-0.026255
	-0.025933
	-0.028832
	-0.024967
	-0.028832
	-0.027222
	-0.028510
	-0.033664
	-0.034953
	-0.038818
	-0.041073
	-0.043006
	-0.045905
	-0.044294
	-0.045261
	-0.041395
	-0.032376
	-0.030121
	-0.021745
	-0.024000
	-0.023034
	-0.022712
	-0.025611
	-0.022712
	-0.029154
	-0.026577
	-0.028510
	-0.030443
	-0.032054
	-0.039140
	-0.038174
	-0.043972
	-0.043328
	-0.043006
	-0.046549
	-0.038818
	-0.033986
	-0.023678
	-0.019813
	-0.023034
	-0.020779
	-0.025611
	-0.020779
	-0.021745
	-0.026255
	-0.023678
	-0.029799
	-0.028188
	-0.032376
	-0.036563
	-0.037208
	-0.042684
	-0.041073
	-0.042684
	-0.040429
	-0.036885
	-0.031087
	-0.023034
	-0.018202
	-0.018846
	-0.019813
	-0.025289
	-0.019491
	-0.021101
	-0.023678
	-0.022712
	-0.027222
	-0.024645
	-0.032376
	-0.033986
	-0.035275
	-0.040751
	-0.036563
	-0.040751
	-0.035919
	-0.033986
	-0.028188
	-0.020457
	-0.019813
	-0.016269
	-0.020779
	-0.019168
	-0.017880
	-0.021745
	-0.021423
	-0.024000
	-0.023356
	-0.025289
	-0.030765
	-0.032054
	-0.036563
	-0.037208
	-0.037208
	-0.040751
	-0.036563
	-0.034953
	-0.024967
	-0.020457
	-0.019168
	-0.017558
	-0.021423
	-0.018846
	-0.015625
	-0.021423
	-0.018202
	-0.021745
	-0.021101
	-0.022712
	-0.030443
	-0.028510
	-0.035919
	-0.034308
	-0.035275
	-0.038496
	-0.033342
	-0.034631
	-0.021745
	-0.019168
	-0.015303
	-0.014981
	-0.018846
	-0.016591
	-0.014337
	-0.017880
	-0.017558
	-0.019168
	-0.019813
	-0.020135
	-0.029799
	-0.027544
	-0.032054
	-0.033020
	-0.031409
	-0.037852
	-0.031087
	-0.031087
	-0.020779
	-0.016914
	-0.014981
	-0.011760
	-0.016269
	-0.014659
	-0.014659
	-0.017236
	-0.016591
	-0.017558
	-0.019491
	-0.021423
	-0.028188
	-0.027544
	-0.031731
	-0.032376
	-0.032054
	-0.035275
	-0.031409
	-0.029154
	-0.021101
	-0.014659
	-0.014337
	-0.010471
	-0.015625
	-0.014659
	-0.013370
	-0.016269
	-0.014014
	-0.018846
	-0.017880
	-0.019813
	-0.026900
	-0.025289
	-0.030443
	-0.029799
	-0.031087
	-0.033986
	-0.030443
	-0.027866
	-0.018202
	-0.016591
	-0.011437
	-0.009827
	-0.014659
	-0.012404
	-0.013370
	-0.014014
	-0.014014
	-0.017236
	-0.015947
	-0.019168
	-0.024000
	-0.023034
	-0.029477
	-0.029154
	-0.029154
	-0.031731
	-0.026900
	-0.030121
	-0.016914
	-0.012082
	-0.007572
	-0.007572
	-0.013370
	-0.010149
	-0.011115
	-0.011760
	-0.012404
	-0.015303
	-0.015303
	-0.017880
	-0.023678
	-0.023034
	-0.026255
	-0.028188
	-0.027222
	-0.032698
	-0.026255
	-0.024967
	-0.017880
	-0.012082
	-0.009505
	-0.005961
	-0.009183
	-0.010471
	-0.009183
	-0.013048
	-0.011437
	-0.012726
	-0.016269
	-0.014659
	-0.021745
	-0.021745
	-0.022712
	-0.028188
	-0.027544
	-0.030121
	-0.028510
	-0.021423
	-0.017236
	-0.007572
	-0.007894
	-0.004995
	-0.008216
	-0.010471
	-0.006928
	-0.012082
	-0.008860
	-0.012726
	-0.014981
	-0.014981
	-0.022068
	-0.020457
	-0.024645
	-0.026255
	-0.029477
	-0.028510
	-0.025289
	-0.020457
	-0.015947
	-0.009183
	-0.006283
	-0.004351
	-0.005961
	-0.009505
	-0.005961
