LabVIEW Measurement	
Writer_Version	2
Reader_Version	2
Separator	Tab
Decimal_Separator	.
Multi_Headings	No
X_Columns	No
Time_Pref	Absolute
Operator	orzr
Date	2022/04/28
Time	13:03:59.9220290499424574016
***End_of_Header***	
	
Channels	1	
Samples	10000	
Date	2022/04/28	
Time	13:03:59.9220290499424574016	
Y_Unit_Label	Volts	
X_Dimension	Time	
X0	0.0000000000000000E+0	
Delta_X	0.001000	
***End_of_Header***		
X_Value	Voltage	Comment
	0.337427
	-1.766704
	-3.431126
	-4.270587
	-4.047675
	-2.805237
	-0.868617
	1.267736
	3.091331
	4.164695
	4.216882
	3.202146
	1.393689
	-0.739122
	-2.680574
	-3.971976
	-4.297645
	-3.538394
	-1.894910
	0.204710
	2.248627
	3.740437
	4.329309
	3.831280
	2.370715
	0.336139
	-1.766382
	-3.432415
	-4.269942
	-4.047031
	-2.806525
	-0.870228
	1.266125
	3.090042
	4.165339
	4.216559
	3.201823
	1.396910
	-0.737190
	-2.682507
	-3.972298
	-4.297967
	-3.538716
	-1.896521
	0.204710
	2.247983
	3.743014
	4.328664
	3.829348
	2.372648
	0.337105
	-1.766704
	-3.434670
	-4.268976
	-4.046065
	-2.803948
	-0.872483
	1.266448
	3.092619
	4.164695
	4.213982
	3.200213
	1.396588
	-0.737512
	-2.683473
	-3.976163
	-4.298289
	-3.535817
	-1.897809
	0.205032
	2.248949
	3.745914
	4.327698
	3.829025
	2.371682
	0.339682
	-1.764449
	-3.435958
	-4.269620
	-4.047353
	-2.801371
	-0.872805
	1.263548
	3.091331
	4.167272
	4.215915
	3.196347
	1.395622
	-0.734935
	-2.678963
	-3.974875
	-4.299578
	-3.537428
	-1.893300
	0.203100
	2.243473
	3.745269
	4.330919
	3.833213
	2.367494
	0.337427
	-1.762839
	-3.432093
	-4.273808
	-4.051541
	-2.800727
	-0.870550
	1.264837
	3.087143
	4.167594
	4.217848
	3.200535
	1.392723
	-0.736867
	-2.677997
	-3.972620
	-4.299256
	-3.539683
	-1.892333
	0.205032
	2.247016
	3.741726
	4.331242
	3.833213
	2.368460
	0.336461
	-1.763161
	-3.430482
	-4.269620
	-4.050252
	-2.802982
	-0.869906
	1.268703
	3.088431
	4.167272
	4.220103
	3.202468
	1.395300
	-0.737834
	-2.678319
	-3.972942
	-4.298612
	-3.538716
	-1.891689
	0.205355
	2.243473
	3.742370
	4.331242
	3.831602
	2.368783
	0.337749
	-1.762517
	-3.429516
	-4.270264
	-4.048642
	-2.799438
	-0.870872
	1.263548
	3.089720
	4.169527
	4.218492
	3.198602
	1.397233
	-0.734290
	-2.678319
	-3.977774
	-4.297645
	-3.535495
	-1.894910
	0.203422
	2.244761
	3.746236
	4.330919
	3.830958
	2.370715
	0.341293
	-1.761228
	-3.434670
	-4.268010
	-4.046709
	-2.802338
	-0.873127
	1.267092
	3.091331
	4.166950
	4.214305
	3.201179
	1.398843
	-0.737834
	-2.681218
	-3.972298
	-4.296357
	-3.539039
	-1.897809
	0.206321
	2.247660
	3.746236
	4.328342
	3.833857
	2.372648
	0.339038
	-1.765738
	-3.431449
	-4.268976
	-4.050574
	-2.802660
	-0.868617
	1.267092
	3.089720
	4.164695
	4.219459
	3.202146
	1.396266
	-0.738478
	-2.676709
	-3.972298
	-4.298612
	-3.537106
	-1.892655
	0.205355
	2.244439
	3.741082
	4.329631
	3.832247
	2.367494
	0.336783
	-1.761228
	-3.431449
	-4.269620
	-4.050574
	-2.802982
	-0.869906
	1.265803
	3.088431
	4.166306
	4.222680
	3.202146
	1.396588
	-0.737834
	-2.678963
	-3.973264
	-4.299578
	-3.538716
	-1.893622
	0.206321
	2.244439
	3.743014
	4.331242
	3.833213
	2.371682
	0.336461
	-1.762839
	-3.431771
	-4.269298
	-4.051541
	-2.801693
	-0.870228
	1.265481
	3.088754
	4.165017
	4.220425
	3.201823
	1.395300
	-0.736867
	-2.676709
	-3.974231
	-4.300866
	-3.536462
	-1.893300
	0.205677
	2.244761
	3.741726
	4.329953
	3.832569
	2.368460
	0.340326
	-1.759295
	-3.430482
	-4.272197
	-4.047997
	-2.801049
	-0.870550
	1.263226
	3.089720
	4.168561
	4.218170
	3.197314
	1.399487
	-0.735257
	-2.680574
	-3.975519
	-4.297001
	-3.537106
	-1.895877
	0.203100
	2.248949
	3.747202
	4.329309
	3.829992
	2.371682
	0.341615
	-1.765094
	-3.433381
	-4.269942
	-4.047997
	-2.803626
	-0.875060
	1.267092
	3.091331
	4.167272
	4.214949
	3.203112
	1.399487
	-0.734613
	-2.679608
	-3.973586
	-4.296035
	-3.535495
	-1.898454
	0.203744
	2.247660
	3.745591
	4.327376
	3.831602
	2.372648
	0.340004
	-1.763805
	-3.433703
	-4.267687
	-4.047031
	-2.805237
	-0.873449
	1.266448
	3.092619
	4.166306
	4.216237
	3.200857
	1.400132
	-0.735257
	-2.681218
	-3.971976
	-4.296357
	-3.537106
	-1.897809
	0.204710
	2.247983
	3.743659
	4.326087
	3.830314
	2.374903
	0.340648
	-1.764449
	-3.431771
	-4.267687
	-4.048320
	-2.804915
	-0.871516
	1.265803
	3.091009
	4.162118
	4.218492
	3.202790
	1.397877
	-0.738478
	-2.678641
	-3.973264
	-4.299900
	-3.538072
	-1.894266
	0.205032
	2.244117
	3.740115
	4.330919
	3.832569
	2.370393
	0.339038
	-1.759295
	-3.432093
	-4.271553
	-4.050897
	-2.802338
	-0.868617
	1.262904
	3.090364
	4.169205
	4.218814
	3.198602
	1.397555
	-0.733002
	-2.680574
	-3.975519
	-4.298934
	-3.535817
	-1.893944
	0.199878
	2.247660
	3.745269
	4.330597
	3.828381
	2.373615
	0.340004
	-1.763483
	-3.433059
	-4.270264
	-4.047675
	-2.804270
	-0.875382
	1.265803
	3.091009
	4.167272
	4.214627
	3.201823
	1.397877
	-0.735901
	-2.681540
	-3.972620
	-4.294746
	-3.535817
	-1.896843
	0.203100
	2.247338
	3.744625
	4.327054
	3.832569
	2.372648
	0.341615
	-1.765094
	-3.431449
	-4.267365
	-4.047031
	-2.804270
	-0.874738
	1.264837
	3.091653
	4.166950
	4.215915
	3.203112
	1.400776
	-0.735257
	-2.682185
	-3.973586
	-4.299578
	-3.538072
	-1.899098
	0.202455
	2.247338
	3.743659
	4.327376
	3.831925
	2.375547
	0.338716
	-1.764771
	-3.431449
	-4.269942
	-4.048964
	-2.804915
	-0.869584
	1.264515
	3.088431
	4.163728
	4.218814
	3.202790
	1.394978
	-0.735901
	-2.678641
	-3.972620
	-4.300866
	-3.540005
	-1.894588
	0.204066
	2.244761
	3.740759
	4.334141
	3.833213
	2.370393
	0.340970
	-1.759940
	-3.429516
	-4.272519
	-4.050252
	-2.801371
	-0.870872
	1.261294
	3.086821
	4.168561
	4.216559
	3.199891
	1.395300
	-0.733646
	-2.678319
	-3.974553
	-4.300866
	-3.536784
	-1.892977
	0.201167
	2.243473
	3.744303
	4.332208
	3.832247
	2.369749
	0.342581
	-1.760584
	-3.431449
	-4.271875
	-4.047997
	-2.804592
	-0.874415
	1.261616
	3.091009
	4.169205
	4.217204
	3.198924
	1.398199
	-0.731713
	-2.679608
	-3.974231
	-4.298934
	-3.537428
	-1.895232
	0.199878
	2.245406
	3.744625
	4.332530
	3.827093
	2.370715
	0.341615
	-1.761872
	-3.433059
	-4.272841
	-4.047031
	-2.803626
	-0.874415
	1.260649
	3.091331
	4.168883
	4.216237
	3.200213
	1.398521
	-0.733646
	-2.681540
	-3.974875
	-4.297967
	-3.535817
	-1.897809
	0.200201
	2.247016
	3.742048
	4.327054
	3.828703
	2.374259
	0.340648
	-1.763483
	-3.433703
	-4.268010
	-4.046387
	-2.805559
	-0.873771
	1.263871
	3.090042
	4.164695
	4.215271
	3.200857
	1.398521
	-0.734935
	-2.682507
	-3.972298
	-4.297645
	-3.538394
	-1.900386
	0.202455
	2.245406
	3.742692
	4.326732
	3.831925
	2.374903
	0.340970
	-1.763805
	-3.432093
	-4.268654
	-4.049286
	-2.806203
	-0.875060
	1.263871
	3.089398
	4.163084
	4.215593
	3.202468
	1.399810
	-0.738156
	-2.680896
	-3.974553
	-4.298612
	-3.540327
	-1.899742
	0.203744
	2.246050
	3.744303
	4.327054
	3.832891
	2.371682
	0.340648
	-1.765094
	-3.431126
	-4.269298
	-4.048964
	-2.807169
	-0.873449
	1.265803
	3.089076
	4.165661
	4.216559
	3.204078
	1.398199
	-0.736223
	-2.678641
	-3.971331
	-4.297645
	-3.540327
	-1.896521
	0.204066
	2.246372
	3.743336
	4.326087
	3.832247
	2.373292
	0.340326
	-1.765094
	-3.430804
	-4.269942
	-4.048964
	-2.805881
	-0.875704
	1.264515
	3.090042
	4.165983
	4.213982
	3.204078
	1.399165
	-0.732680
	-2.681218
	-3.973908
	-4.296679
	-3.537750
	-1.898131
	0.198268
	2.245728
	3.744625
	4.329953
	3.829025
	2.373937
	0.343225
	-1.762517
	-3.433381
	-4.269942
	-4.048964
	-2.805559
	-0.874093
	1.263871
	3.090042
	4.165983
	4.214949
	3.203434
	1.399165
	-0.735257
	-2.683151
	-3.971654
	-4.298612
	-3.538394
	-1.898131
	0.199556
	2.247016
	3.742370
	4.328664
	3.830636
	2.376192
	0.342581
	-1.762194
	-3.432093
	-4.269942
	-4.047997
	-2.806847
	-0.874093
	1.264193
	3.089720
	4.163728
	4.216559
	3.203112
	1.399810
	-0.733646
	-2.683151
	-3.971654
	-4.297645
	-3.537750
	-1.898454
	0.201489
	2.248305
	3.742692
	4.328987
	3.827737
	2.374259
	0.342259
	-1.760906
	-3.432737
	-4.269942
	-4.048642
	-2.804592
	-0.873449
	1.258716
	3.090042
	4.166950
	4.218492
	3.198280
	1.399165
	-0.731391
	-2.676064
	-3.974553
	-4.300866
	-3.535817
	-1.897165
	0.201167
	2.241862
	3.743981
	4.332208
	3.831925
	2.369427
	0.340326
	-1.758007
	-3.430804
	-4.272197
	-4.051219
	-2.804270
	-0.873127
	1.261938
	3.087465
	4.164051
	4.220747
	3.202468
	1.399810
	-0.737190
	-2.678641
	-3.972620
	-4.298289
	-3.540971
	-1.897809
	0.203100
	2.245406
	3.741726
	4.327698
	3.832569
	2.375547
	0.340970
	-1.763805
	-3.432093
	-4.268976
	-4.048964
	-2.805559
	-0.873771
	1.263226
	3.090686
	4.162118
	4.214305
	3.202146
	1.399810
	-0.734290
	-2.681218
	-3.972298
	-4.297645
	-3.535495
	-1.899742
	0.199878
	2.245728
	3.743659
	4.330597
	3.829025
	2.373292
	0.342903
	-1.757685
	-3.432093
	-4.272519
	-4.048320
	-2.804915
	-0.873127
	1.259039
	3.089076
	4.168883
	4.218814
	3.201179
	1.396266
	-0.732036
	-2.677997
	-3.972298
	-4.302155
	-3.539361
	-1.893622
	0.200523
	2.244117
	3.738827
	4.330275
	3.834824
	2.373615
	0.339360
	-1.763805
	-3.428872
	-4.269298
	-4.048964
	-2.806847
	-0.876026
	1.264193
	3.088431
	4.165983
	4.216559
	3.204401
	1.399810
	-0.732680
	-2.679930
	-3.972942
	-4.297001
	-3.539361
	-1.897487
	0.197946
	2.245083
	3.744625
	4.330275
	3.829992
	2.370393
	0.343548
	-1.761550
	-3.432093
	-4.272197
	-4.048964
	-2.802338
	-0.874415
	1.260005
	3.087143
	4.167916
	4.219137
	3.199568
	1.399165
	-0.732358
	-2.675742
	-3.974553
	-4.301511
	-3.536784
	-1.896521
	0.202455
	2.241218
	3.742048
	4.332208
	3.834502
	2.371682
	0.341293
	-1.758973
	-3.430160
	-4.270909
	-4.050897
	-2.803948
	-0.872161
	1.261294
	3.085210
	4.165983
	4.220747
	3.201501
	1.397877
	-0.734290
	-2.677031
	-3.972942
	-4.301189
	-3.540327
	-1.895554
	0.202778
	2.242506
	3.740115
	4.329631
	3.834824
	2.373292
	0.340326
	-1.760584
	-3.428549
	-4.269620
	-4.052185
	-2.804915
	-0.874093
	1.264515
	3.086499
	4.163406
	4.218814
	3.204723
	1.398843
	-0.736223
	-2.677997
	-3.972298
	-4.298289
	-3.540005
	-1.896843
	0.203100
	2.247660
	3.740437
	4.328664
	3.833213
	2.374581
	0.342903
	-1.762839
	-3.429194
	-4.268332
	-4.047675
	-2.808136
	-0.876026
	1.263871
	3.089076
	4.166628
	4.215271
	3.204078
	1.401098
	-0.731391
	-2.679608
	-3.971331
	-4.297001
	-3.539683
	-1.900708
	0.198590
	2.246372
	3.743336
	4.327698
	3.831602
	2.375547
	0.342903
	-1.762194
	-3.431771
	-4.268976
	-4.047675
	-2.806203
	-0.877959
	1.262582
	3.090042
	4.166950
	4.214627
	3.201823
	1.401742
	-0.731713
	-2.678641
	-3.975197
	-4.296679
	-3.539361
	-1.898454
	0.197623
	2.243151
	3.745914
	4.331564
	3.831602
	2.370715
	0.343548
	-1.759617
	-3.429838
	-4.270909
	-4.048964
	-2.800727
	-0.873127
	1.260971
	3.086177
	4.166628
	4.220747
	3.200857
	1.396910
	-0.733646
	-2.676064
	-3.972942
	-4.302155
	-3.537750
	-1.897487
	0.201811
	2.241218
	3.739793
	4.331886
	3.833535
	2.372326
	0.341293
	-1.757040
	-3.428872
	-4.270264
	-4.051541
	-2.806525
	-0.873127
	1.259683
	3.084244
	4.165339
	4.219137
	3.203112
	1.397877
	-0.730425
	-2.676064
	-3.971654
	-4.304088
	-3.538072
	-1.895877
	0.202133
	2.242506
	3.741082
	4.331564
	3.832569
	2.372970
	0.340970
	-1.758329
	-3.429838
	-4.272519
	-4.050252
	-2.803948
	-0.872805
	1.257750
	3.086499
	4.165661
	4.218814
	3.199568
	1.399487
	-0.731069
	-2.677031
	-3.973264
	-4.298934
	-3.537106
	-1.897809
	0.198590
	2.244117
	3.743659
	4.332852
	3.828381
	2.373615
	0.343870
	-1.759295
	-3.433059
	-4.269620
	-4.047997
	-2.804915
	-0.875060
	1.262260
	3.089720
	4.168561
	4.215271
	3.202468
	1.401098
	-0.730425
	-2.680252
	-3.973908
	-4.297645
	-3.537750
	-1.898454
	0.197946
	2.245083
	3.742370
	4.329953
	3.829992
	2.375547
	0.345158
	-1.758651
	-3.431771
	-4.270909
	-4.047997
	-2.805237
	-0.877637
	1.260327
	3.088109
	4.168238
	4.216882
	3.201179
	1.401420
	-0.731069
	-2.677997
	-3.975519
	-4.297967
	-3.538072
	-1.897165
	0.197946
	2.243795
	3.744625
	4.329953
	3.831602
	2.373615
	0.346125
	-1.759940
	-3.431771
	-4.270264
	-4.049286
	-2.804270
	-0.878281
	1.261938
	3.089076
	4.166306
	4.214949
	3.202790
	1.402709
	-0.732036
	-2.677997
	-3.975197
	-4.297967
	-3.538072
	-1.899098
	0.200201
	2.243795
	3.743981
	4.330275
	3.829992
	2.374259
	0.345158
	-1.758651
	-3.433059
	-4.269298
	-4.049286
	-2.804270
	-0.876992
	1.259039
	3.088431
	4.166306
	4.217526
	3.201501
	1.403675
	-0.730425
	-2.675420
	-3.973264
	-4.298612
	-3.536462
	-1.897809
	0.198268
	2.241862
	3.743014
	4.331242
	3.831602
	2.372970
	0.345480
	-1.757363
	-3.431126
	-4.271875
	-4.050252
	-2.805237
	-0.874415
	1.259361
	3.086499
	4.168561
	4.222036
	3.202790
	1.400454
	-0.731713
	-2.675420
	-3.972298
	-4.300544
	-3.540649
	-1.898131
	0.201811
	2.240896
	3.740437
	4.329309
	3.835468
	2.375547
	0.340648
	-1.761550
	-3.428227
	-4.268332
	-4.050897
	-2.808458
	-0.875382
	1.262582
	3.089076
	4.162762
	4.217204
	3.203112
	1.402387
	-0.733968
	-2.679286
	-3.971976
	-4.297323
	-3.538716
	-1.901353
	0.199878
	2.243473
	3.742370
	4.328020
	3.832247
	2.377480
	0.346447
	-1.759617
	-3.431449
	-4.267687
	-4.048320
	-2.804915
	-0.877959
	1.259361
	3.088109
	4.168238
	4.217526
	3.200857
	1.402387
	-0.731069
	-2.675098
	-3.975841
	-4.298934
	-3.537750
	-1.897165
	0.198590
	2.242184
	3.744947
	4.332530
	3.834180
	2.372326
	0.346125
	-1.757040
	-3.429838
	-4.273486
	-4.050897
	-2.804592
	-0.874415
	1.259361
	3.084888
	4.168561
	4.220103
	3.202790
	1.399810
	-0.730103
	-2.673809
	-3.971331
	-4.300222
	-3.541938
	-1.896843
	0.199878
	2.241862
	3.740115
	4.331242
	3.834180
	2.373937
	0.341615
	-1.759617
	-3.426617
	-4.269298
	-4.051541
	-2.805881
	-0.875704
	1.262904
	3.085532
	4.164051
	4.218492
	3.207300
	1.400132
	-0.734290
	-2.675742
	-3.970043
	-4.296035
	-3.540971
	-1.898776
	0.200523
	2.244117
	3.740437
	4.327054
	3.832891
	2.375870
	0.345480
	-1.761872
	-3.430482
	-4.268332
	-4.049608
	-2.806847
	-0.878603
	1.260649
	3.089398
	4.167594
	4.216237
	3.202468
	1.402387
	-0.731391
	-2.677675
	-3.975841
	-4.298934
	-3.539039
	-1.896843
	0.199234
	2.240251
	3.743336
	4.331242
	3.835468
	2.372326
	0.344514
	-1.756718
	-3.428872
	-4.273164
	-4.052185
	-2.805237
	-0.876026
	1.260327
	3.083599
	4.166950
	4.220425
	3.202468
	1.398199
	-0.731713
	-2.674454
	-3.971976
	-4.300544
	-3.541938
	-1.896521
	0.202455
	2.242506
	3.741082
	4.331564
	3.835790
	2.373937
	0.340648
	-1.760584
	-3.427905
	-4.268976
	-4.051863
	-2.806847
	-0.875382
	1.261616
	3.085210
	4.161796
	4.219137
	3.205689
	1.401098
	-0.733646
	-2.674132
	-3.970687
	-4.297645
	-3.543548
	-1.901031
	0.200845
	2.242184
	3.738827
	4.329309
	3.834824
	2.373937
	0.343548
	-1.758651
	-3.426939
	-4.270264
	-4.053474
	-2.809424
	-0.876670
	1.261294
	3.084566
	4.165017
	4.219459
	3.205689
	1.398199
	-0.734290
	-2.675742
	-3.971009
	-4.301189
	-3.542260
	-1.897165
	0.197946
	2.241540
	3.737216
	4.329953
	3.833857
	2.375225
	0.341293
	-1.758651
	-3.427905
	-4.271231
	-4.052829
	-2.807814
	-0.875382
	1.259361
	3.082633
	4.164373
	4.220103
	3.204401
	1.397555
	-0.732358
	-2.676064
	-3.972298
	-4.302155
	-3.542582
	-1.897809
	0.199556
	2.239285
	3.737538
	4.331242
	3.833535
	2.375225
	0.341293
	-1.757685
	-3.428872
	-4.270587
	-4.053474
	-2.806203
	-0.875704
	1.258394
	3.083277
	4.163084
	4.219781
	3.203756
	1.399165
	-0.730747
	-2.673809
	-3.970365
	-4.302155
	-3.540327
	-1.899098
	0.201167
	2.241218
	3.739471
	4.332852
	3.834180
	2.372648
	0.342259
	-1.757363
	-3.430160
	-4.272841
	-4.055084
	-2.806525
	-0.875382
	1.257106
	3.083922
	4.166950
	4.220747
	3.204078
	1.399810
	-0.731713
	-2.673809
	-3.971331
	-4.302477
	-3.542904
	-1.899742
	0.199234
	2.240896
	3.738827
	4.330275
	3.836435
	2.373937
	0.340970
	-1.758651
	-3.427905
	-4.269942
	-4.053796
	-2.807492
	-0.876670
	1.262260
	3.084888
	4.164695
	4.220747
	3.205045
	1.401420
	-0.733646
	-2.675742
	-3.971976
	-4.300222
	-3.543226
	-1.897487
	0.200523
	2.239285
	3.737538
	4.329631
	3.835146
	2.374259
	0.342581
	-1.757363
	-3.427583
	-4.268332
	-4.053151
	-2.805237
	-0.875382
	1.260971
	3.084244
	4.164695
	4.221069
	3.205045
	1.402065
	-0.733646
	-2.674454
	-3.971654
	-4.301189
	-3.543226
	-1.901031
	0.200845
	2.239607
	3.737860
	4.330919
	3.834180
	2.375547
	0.342581
	-1.755108
	-3.427905
	-4.268654
	-4.054762
	-2.806203
	-0.874738
	1.257428
	3.083277
	4.165661
	4.220425
	3.202468
	1.400132
	-0.730747
	-2.673809
	-3.974231
	-4.302155
	-3.538716
	-1.899420
	0.198590
	2.239607
	3.744625
	4.331242
	3.830958
	2.373937
	0.346125
	-1.755108
	-3.431126
	-4.270587
	-4.049930
	-2.807169
	-0.879247
	1.255495
	3.086177
	4.165339
	4.219781
	3.200213
	1.403675
	-0.728492
	-2.673809
	-3.973586
	-4.299900
	-3.538072
	-1.899742
	0.197623
	2.238963
	3.742370
	4.330919
	3.831602
	2.373615
	0.346125
	-1.756396
	-3.430482
	-4.269942
	-4.050252
	-2.806525
	-0.878281
	1.257106
	3.088431
	4.165339
	4.217848
	3.202468
	1.403675
	-0.728814
	-2.677031
	-3.974231
	-4.298934
	-3.540327
	-1.901675
	0.194080
	2.243151
	3.740759
	4.331564
	3.831280
	2.377158
	0.345802
	-1.758651
	-3.430804
	-4.268976
	-4.048642
	-2.807169
	-0.877959
	1.258716
	3.087787
	4.168561
	4.215915
	3.204401
	1.403031
	-0.729781
	-2.678319
	-3.972620
	-4.297967
	-3.540649
	-1.899098
	0.194080
	2.243473
	3.741404
	4.328342
	3.831925
	2.376836
	0.347735
	-1.757685
	-3.430804
	-4.269942
	-4.048964
	-2.808136
	-0.880536
	1.260327
	3.086821
	4.165017
	4.215271
	3.204078
	1.403031
	-0.729136
	-2.678641
	-3.971654
	-4.297001
	-3.540971
	-1.901997
	0.198590
	2.242506
	3.743014
	4.328020
	3.832569
	2.376836
	0.345802
	-1.759940
	-3.429838
	-4.269298
	-4.051863
	-2.809102
	-0.879892
	1.260649
	3.088754
	4.165017
	4.216882
	3.206978
	1.406252
	-0.730103
	-2.676709
	-3.972620
	-4.298289
	-3.540327
	-1.904252
	0.197301
	2.242184
	3.742048
	4.328020
	3.832247
	2.376514
	0.346769
	-1.758973
	-3.430482
	-4.268010
	-4.050574
	-2.808458
	-0.880214
	1.260005
	3.087465
	4.165661
	4.216559
	3.206333
	1.404642
	-0.732036
	-2.676709
	-3.970365
	-4.298612
	-3.540971
	-1.904252
	0.197946
	2.242184
	3.741404
	4.326732
	3.835468
	2.377480
	0.344514
	-1.759295
	-3.428549
	-4.267687
	-4.050897
	-2.810713
	-0.876026
	1.259361
	3.084244
	4.160829
	4.220747
	3.205045
	1.402065
	-0.733002
	-2.674132
	-3.971976
	-4.300866
	-3.544837
	-1.901031
	0.198268
	2.237997
	3.736572
	4.330919
	3.834502
	2.375225
	0.343225
	-1.754786
	-3.428227
	-4.272519
	-4.054440
	-2.807814
	-0.876992
	1.255817
	3.084244
	4.165661
	4.220425
	3.202790
	1.401098
	-0.728170
	-2.675420
	-3.974875
	-4.300866
	-3.539361
	-1.900386
	0.194724
	2.240251
	3.740759
	4.331886
	3.830314
	2.376192
	0.346447
	-1.757363
	-3.431449
	-4.270264
	-4.050574
	-2.808780
	-0.879247
	1.255173
	3.087787
	4.164695
	4.215593
	3.202790
	1.403675
	-0.728492
	-2.677353
	-3.972620
	-4.299900
	-3.539361
	-1.904896
	0.193758
	2.241540
	3.739149
	4.327054
	3.829348
	2.376514
	0.344836
	-1.757363
	-3.432415
	-4.268976
	-4.049930
	-2.811357
	-0.881824
	1.257428
	3.087787
	4.162440
	4.216559
	3.204401
	1.404642
	-0.731069
	-2.679608
	-3.971009
	-4.299900
	-3.541938
	-1.906185
	0.197623
	2.241862
	3.739471
	4.327376
	3.834502
	2.380057
	0.344836
	-1.759940
	-3.427905
	-4.268654
	-4.051541
	-2.810069
	-0.876670
	1.258716
	3.085532
	4.161151
	4.220425
	3.206011
	1.401098
	-0.733646
	-2.673809
	-3.970043
	-4.300222
	-3.542904
	-1.900708
	0.198590
	2.239285
	3.736894
	4.331242
	3.834502
	2.375225
	0.345158
	-1.754141
	-3.427905
	-4.270909
	-4.054118
	-2.807814
	-0.876026
	1.255817
	3.082633
	4.165017
	4.220425
	3.202790
	1.400454
	-0.729781
	-2.673809
	-3.971976
	-4.302155
	-3.540327
	-1.899742
	0.197301
	2.237030
	3.739149
	4.330275
	3.833213
	2.373937
	0.345480
	-1.753819
	-3.428549
	-4.271553
	-4.050897
	-2.807814
	-0.878603
	1.254207
	3.085210
	4.165339
	4.220103
	3.202146
	1.404964
	-0.726237
	-2.673809
	-3.973908
	-4.300866
	-3.540971
	-1.902963
	0.193436
	2.238963
	3.742370
	4.331564
	3.830314
	2.375225
	0.346447
	-1.755108
	-3.430160
	-4.270587
	-4.050574
	-2.807814
	-0.878603
	1.255495
	3.087787
	4.166950
	4.219459
	3.203112
	1.405286
	-0.728492
	-2.674132
	-3.974875
	-4.299578
	-3.540327
	-1.902641
	0.194080
	2.239929
	3.741404
	4.329953
	3.832569
	2.376192
	0.348702
	-1.755430
	-3.429838
	-4.269298
	-4.049608
	-2.805881
	-0.881180
	1.255173
	3.085210
	4.165983
	4.216882
	3.202468
	1.405286
	-0.728814
	-2.673809
	-3.974553
	-4.298612
	-3.541616
	-1.900708
	0.194080
	2.238641
	3.741404
	4.331564
	3.834824
	2.375225
	0.349668
	-1.755108
	-3.428872
	-4.272841
	-4.051219
	-2.808458
	-0.881180
	1.254851
	3.083599
	4.166950
	4.219459
	3.202790
	1.403997
	-0.726559
	-2.674132
	-3.973908
	-4.298934
	-3.540649
	-1.899742
	0.195369
	2.238641
	3.742370
	4.332852
	3.836112
	2.373615
	0.347413
	-1.755430
	-3.426295
	-4.272519
	-4.053151
	-2.806203
	-0.877959
	1.256784
	3.081344
	4.166306
	4.219459
	3.206333
	1.401420
	-0.726882
	-2.671555
	-3.971976
	-4.301189
	-3.541616
	-1.899098
	0.197623
	2.237997
	3.738504
	4.331564
	3.835146
	2.373615
	0.345802
	-1.755752
	-3.427583
	-4.271553
	-4.051863
	-2.807169
	-0.878603
	1.256462
	3.082633
	4.167594
	4.219781
	3.204723
	1.401742
	-0.727526
	-2.671232
	-3.970365
	-4.301511
	-3.544193
	-1.901031
	0.196979
	2.237997
	3.736894
	4.330275
	3.837723
	2.376836
	0.344192
	-1.756074
	-3.427261
	-4.269298
	-4.053796
	-2.807814
	-0.877637
	1.259039
	3.080378
	4.163406
	4.221069
	3.206655
	1.400454
	-0.732358
	-2.673809
	-3.970687
	-4.299256
	-3.546125
	-1.901675
	0.197301
	2.239285
	3.737216
	4.329309
	3.837079
	2.379413
	0.346769
	-1.758651
	-3.426617
	-4.269942
	-4.054118
	-2.810069
	-0.878603
	1.259361
	3.083922
	4.161473
	4.218492
	3.208588
	1.404964
	-0.730425
	-2.673809
	-3.970043
	-4.297001
	-3.543548
	-1.902319
	0.198590
	2.240896
	3.738504
	4.327054
	3.836757
	2.378447
	0.347735
	-1.759940
	-3.427583
	-4.269620
	-4.053151
	-2.811357
	-0.880858
	1.259039
	3.086177
	4.164695
	4.215915
	3.206333
	1.406574
	-0.728492
	-2.674776
	-3.971976
	-4.297967
	-3.540971
	-1.903930
	0.193114
	2.240251
	3.742370
	4.329953
	3.832891
	2.377158
	0.348702
	-1.754786
	-3.428549
	-4.272519
	-4.050897
	-2.807169
	-0.879569
	1.256139
	3.082311
	4.167272
	4.223002
	3.204723
	1.402709
	-0.728814
	-2.673487
	-3.971654
	-4.302155
	-3.544193
	-1.901353
	0.197946
	2.237030
	3.738504
	4.329953
	3.836112
	2.375547
	0.344514
	-1.755752
	-3.425650
	-4.269620
	-4.053796
	-2.807169
	-0.877315
	1.259039
	3.081667
	4.163728
	4.221714
	3.209233
	1.402065
	-0.729781
	-2.672521
	-3.970687
	-4.298934
	-3.545159
	-1.901353
	0.196657
	2.240574
	3.736894
	4.329953
	3.837723
	2.378769
	0.348379
	-1.757685
	-3.424684
	-4.268332
	-4.050574
	-2.812001
	-0.878925
	1.258394
	3.083599
	4.163084
	4.216882
	3.209233
	1.405286
	-0.726237
	-2.676064
	-3.972298
	-4.298934
	-3.540971
	-1.901675
	0.191825
	2.241540
	3.741726
	4.330919
	3.832247
	2.376514
	0.348379
	-1.753175
	-3.428227
	-4.271875
	-4.050897
	-2.807814
	-0.879247
	1.254207
	3.082633
	4.165983
	4.220103
	3.204078
	1.401098
	-0.726559
	-2.673487
	-3.969721
	-4.302799
	-3.542904
	-1.901353
	0.196335
	2.237674
	3.736572
	4.331564
	3.833857
	2.377480
	0.344514
	-1.753819
	-3.426617
	-4.269298
	-4.055728
	-2.810713
	-0.880536
	1.256784
	3.081344
	4.162440
	4.222036
	3.207944
	1.403031
	-0.729781
	-2.671877
	-3.971009
	-4.300866
	-3.546770
	-1.905218
	0.195691
	2.238319
	3.735605
	4.326410
	3.837723
	2.377802
	0.346125
	-1.759295
	-3.425972
	-4.268654
	-4.051541
	-2.811679
	-0.882791
	1.257106
	3.082633
	4.164051
	4.216237
	3.207300
	1.406574
	-0.728170
	-2.676709
	-3.971009
	-4.299256
	-3.542904
	-1.905540
	0.193114
	2.240896
	3.740437
	4.329309
	3.832891
	2.378124
	0.348702
	-1.755752
	-3.428549
	-4.270909
	-4.049608
	-2.809102
	-0.880536
	1.253885
	3.081344
	4.165983
	4.219781
	3.205045
	1.401098
	-0.726237
	-2.672521
	-3.969399
	-4.301189
	-3.545159
	-1.899742
	0.196013
	2.238963
	3.736894
	4.328987
	3.836112
	2.379735
	0.347735
	-1.758651
	-3.425972
	-4.269942
	-4.051863
	-2.813612
	-0.883757
	1.256139
	3.084244
	4.164051
	4.216237
	3.205367
	1.406896
	-0.724627
	-2.672843
	-3.972298
	-4.299578
	-3.541616
	-1.904252
	0.191825
	2.238963
	3.740115
	4.332530
	3.832569
	2.376836
	0.349024
	-1.752853
	-3.427905
	-4.272519
	-4.052185
	-2.811035
	-0.879247
	1.252596
	3.081344
	4.165983
	4.221069
	3.206655
	1.402065
	-0.728170
	-2.672843
	-3.969077
	-4.302799
	-3.546125
	-1.902963
	0.195691
	2.239607
	3.736894
	4.329631
	3.836112
	2.380702
	0.344514
	-1.755752
	-3.425972
	-4.267687
	-4.051219
	-2.812001
	-0.880536
	1.256784
	3.085532
	4.162118
	4.217848
	3.205689
	1.407541
	-0.726882
	-2.676386
	-3.971976
	-4.298612
	-3.541293
	-1.903930
	0.192147
	2.236708
	3.741082
	4.332208
	3.833857
	2.376514
	0.350312
	-1.753175
	-3.427261
	-4.271231
	-4.054440
	-2.808458
	-0.879892
	1.253562
	3.080378
	4.163406
	4.221069
	3.207944
	1.404319
	-0.729136
	-2.670588
	-3.971009
	-4.301189
	-3.544515
	-1.904574
	0.196657
	2.238641
	3.736894
	4.326732
	3.836757
	2.377802
	0.348379
	-1.757040
	-3.429194
	-4.268332
	-4.052185
	-2.811035
	-0.884079
	1.255817
	3.084566
	4.165661
	4.217526
	3.203112
	1.406896
	-0.725915
	-2.672521
	-3.973264
	-4.298289
	-3.541293
	-1.901031
	0.192469
	2.236386
	3.740437
	4.329953
	3.834180
	2.374259
	0.348379
	-1.754463
	-3.424040
	-4.272197
	-4.053796
	-2.809102
	-0.880536
	1.254207
	3.079412
	4.165017
	4.222036
	3.209233
	1.402709
	-0.729136
	-2.672199
	-3.969399
	-4.299900
	-3.547092
	-1.904896
	0.194724
	2.239607
	3.736894
	4.328342
	3.834502
	2.380702
	0.349346
	-1.757363
	-3.426617
	-4.268654
	-4.051541
	-2.813290
	-0.884401
	1.255495
	3.083599
	4.165661
	4.216237
	3.205689
	1.406574
	-0.725915
	-2.673809
	-3.973264
	-4.300544
	-3.541938
	-1.902963
	0.191503
	2.237030
	3.739471
	4.332208
	3.836435
	2.376514
	0.347735
	-1.752209
	-3.427261
	-4.272841
	-4.054118
	-2.810713
	-0.877959
	1.255173
	3.080700
	4.162118
	4.222036
	3.207300
	1.403997
	-0.728170
	-2.671555
	-3.968110
	-4.300544
	-3.544193
	-1.902319
	0.196657
	2.238319
	3.736249
	4.327698
	3.836435
	2.381024
	0.346125
	-1.756396
	-3.426295
	-4.267365
	-4.052185
	-2.812646
	-0.884401
	1.256139
	3.086821
	4.165017
	4.219137
	3.204723
	1.408829
	-0.724627
	-2.672199
	-3.973264
	-4.300544
	-3.543226
	-1.904252
	0.193436
	2.233809
	3.739471
	4.330919
	3.836757
	2.376192
	0.346769
	-1.754141
	-3.425650
	-4.268654
	-4.055406
	-2.813612
	-0.881824
	1.256462
	3.083922
	4.162440
	4.217848
	3.209233
	1.408507
	-0.727526
	-2.674776
	-3.971654
	-4.298934
	-3.543870
	-1.907473
	0.190859
	2.238641
	3.740115
	4.327698
	3.833857
	2.376836
	0.350312
	-1.752853
	-3.428549
	-4.271875
	-4.051219
	-2.807492
	-0.880214
	1.254529
	3.080056
	4.165983
	4.220747
	3.207300
	1.402387
	-0.728814
	-2.671877
	-3.969077
	-4.298934
	-3.545159
	-1.903930
	0.193758
	2.237997
	3.736572
	4.326410
	3.836757
	2.381024
	0.349990
	-1.755752
	-3.428549
	-4.268976
	-4.051219
	-2.809102
	-0.884079
	1.253885
	3.083922
	4.166628
	4.220425
	3.205367
	1.403675
	-0.723982
	-2.672843
	-3.971009
	-4.302155
	-3.544837
	-1.901997
	0.194402
	2.236064
	3.735605
	4.332208
	3.836435
	2.379735
	0.346447
	-1.756396
	-3.425328
	-4.269942
	-4.052507
	-2.815223
	-0.883113
	1.254851
	3.084888
	4.163084
	4.216559
	3.206655
	1.408185
	-0.724304
	-2.672199
	-3.972298
	-4.299900
	-3.540649
	-1.903285
	0.192792
	2.235097
	3.737860
	4.332852
	3.834824
	2.377802
	0.346447
	-1.750598
	-3.425006
	-4.267043
	-4.054440
	-2.815223
	-0.879569
	1.255495
	3.083922
	4.162440
	4.216882
	3.208588
	1.409474
	-0.723660
	-2.673165
	-3.971009
	-4.301189
	-3.540971
	-1.902963
	0.192792
	2.235097
	3.736572
	4.332208
	3.836757
	2.381346
	0.346769
	-1.754141
	-3.425006
	-4.267043
	-4.052185
	-2.814256
	-0.883435
	1.253885
	3.085854
	4.164695
	4.220747
	3.204078
	1.406574
	-0.723660
	-2.670910
	-3.970365
	-4.303443
	-3.542904
	-1.902963
	0.194080
	2.236708
	3.735605
	4.330597
	3.838367
	2.383923
	0.347735
	-1.755752
	-3.427905
	-4.268332
	-4.053151
	-2.812323
	-0.883757
	1.255817
	3.086177
	4.164051
	4.218492
	3.204723
	1.407541
	-0.724627
	-2.671555
	-3.972298
	-4.301833
	-3.543226
	-1.902319
	0.195046
	2.235419
	3.738182
	4.331564
	3.837401
	2.377802
	0.348057
	-1.753819
	-3.423718
	-4.268654
	-4.053796
	-2.813612
	-0.882469
	1.256784
	3.082311
	4.161473
	4.216559
	3.208588
	1.408829
	-0.725593
	-2.672199
	-3.971009
	-4.297645
	-3.542260
	-1.906507
	0.190537
	2.235742
	3.740437
	4.329631
	3.833213
	2.375870
	0.351279
	-1.751886
	-3.424362
	-4.269942
	-4.056051
	-2.810713
	-0.881180
	1.255817
	3.081344
	4.162440
	4.220103
	3.209233
	1.408829
	-0.729459
	-2.672843
	-3.969399
	-4.298934
	-3.545159
	-1.908762
	0.192147
	2.238963
	3.741082
	4.328342
	3.833535
	2.378124
	0.351279
	-1.753497
	-3.429194
	-4.269942
	-4.051219
	-2.810391
	-0.883435
	1.252918
	3.080056
	4.165339
	4.222036
	3.206655
	1.405286
	-0.725593
	-2.669944
	-3.969399
	-4.300866
	-3.546447
	-1.904252
	0.194080
	2.236708
	3.737216
	4.327054
	3.839334
	2.383923
	0.351279
	-1.755430
	-3.426617
	-4.268654
	-4.052507
	-2.812323
	-0.886334
	1.253885
	3.082955
	4.165339
	4.219459
	3.205689
	1.407541
	-0.723016
	-2.669944
	-3.972942
	-4.300544
	-3.543226
	-1.903285
	0.192469
	2.234131
	3.737538
	4.331564
	3.837401
	2.377158
	0.349346
	-1.753819
	-3.424040
	-4.271231
	-4.055728
	-2.812968
	-0.882791
	1.255817
	3.079412
	4.160507
	4.220103
	3.212132
	1.407541
	-0.725271
	-2.672843
	-3.968754
	-4.299256
	-3.544515
	-1.907473
	0.192147
	2.240896
	3.739471
	4.330597
	3.830958
	2.380057
	0.351601
	-1.751242
	-3.428227
	-4.270909
	-4.050897
	-2.811357
	-0.880858
	1.250019
	3.080378
	4.165339
	4.221069
	3.207622
	1.404642
	-0.723982
	-2.669622
	-3.967788
	-4.302155
	-3.543548
	-1.904574
	0.193436
	2.236708
	3.734317
	4.332208
	3.838367
	2.381668
	0.348057
	-1.751886
	-3.424040
	-4.267043
	-4.052829
	-2.816189
	-0.880536
	1.255817
	3.082955
	4.160507
	4.220103
	3.208910
	1.409151
	-0.725271
	-2.675420
	-3.967466
	-4.300222
	-3.542582
	-1.907151
	0.188926
	2.236386
	3.739149
	4.331886
	3.834180
	2.381024
	0.351279
	-1.749954
	-3.425650
	-4.270587
	-4.053474
	-2.809746
	-0.881824
	1.253240
	3.080378
	4.161151
	4.223002
	3.207944
	1.407219
	-0.727848
	-2.670910
	-3.969077
	-4.298289
	-3.545803
	-1.906185
	0.195046
	2.238319
	3.739149
	4.325443
	3.836435
	2.382634
	0.351923
	-1.755108
	-3.425972
	-4.268976
	-4.052507
	-2.812001
	-0.888267
	1.254207
	3.081344
	4.162440
	4.215915
	3.208266
	1.408507
	-0.723338
	-2.672843
	-3.971009
	-4.298612
	-3.542904
	-1.904896
	0.188282
	2.235097
	3.737860
	4.331242
	3.831602
	2.377802
	0.351923
	-1.750276
	-3.424040
	-4.272519
	-4.053796
	-2.812646
	-0.881824
	1.250341
	3.080700
	4.165339
	4.221714
	3.208588
	1.405608
	-0.723338
	-2.669622
	-3.969077
	-4.304088
	-3.545481
	-1.905862
	0.192792
	2.235419
	3.735283
	4.331242
	3.837401
	2.380379
	0.348057
	-1.752209
	-3.423073
	-4.266399
	-4.054440
	-2.814256
	-0.881180
	1.254529
	3.081022
	4.161151
	4.218170
	3.209555
	1.408829
	-0.726559
	-2.671877
	-3.969399
	-4.298934
	-3.545803
	-1.909406
	0.191503
	2.237352
	3.737216
	4.327054
	3.836757
	2.383279
	0.353533
	-1.754463
	-3.426939
	-4.267043
	-4.050897
	-2.811035
	-0.885690
	1.252918
	3.082311
	4.166306
	4.218814
	3.206333
	1.408507
	-0.722372
	-2.670588
	-3.970365
	-4.302155
	-3.542260
	-1.902963
	0.190859
	2.235742
	3.738182
	4.333497
	3.837723
	2.380702
	0.349668
	-1.749954
	-3.425650
	-4.269298
	-4.056051
	-2.814578
	-0.880858
	1.254851
	3.081667
	4.160185
	4.221069
	3.210843
	1.411084
	-0.726237
	-2.671877
	-3.967788
	-4.299578
	-3.545159
	-1.909084
	0.192469
	2.236708
	3.738827
	4.325443
	3.835468
	2.382956
	0.352245
	-1.753497
	-3.425972
	-4.268010
	-4.051219
	-2.812646
	-0.886334
	1.256139
	3.082955
	4.165339
	4.218492
	3.206655
	1.409151
	-0.721405
	-2.670910
	-3.971976
	-4.300866
	-3.543870
	-1.904574
	0.190537
	2.234453
	3.736894
	4.333497
	3.836435
	2.379735
	0.347735
	-1.749954
	-3.423395
	-4.269298
	-4.054118
	-2.813290
	-0.881824
	1.252918
	3.079090
	4.159863
	4.220103
	3.211165
	1.407863
	-0.725271
	-2.673487
	-3.968110
	-4.298934
	-3.544837
	-1.908762
	0.189248
	2.237674
	3.738504
	4.332208
	3.834502
	2.383923
	0.353856
	-1.749954
	-3.425328
	-4.271875
	-4.052507
	-2.811357
	-0.882469
	1.249375
	3.079734
	4.164373
	4.221714
	3.208266
	1.405286
	-0.724304
	-2.669622
	-3.968754
	-4.301511
	-3.545803
	-1.905540
	0.193436
	2.238641
	3.735605
	4.327376
	3.835790
	2.383601
	0.352567
	-1.753819
	-3.425328
	-4.267043
	-4.051863
	-2.814578
	-0.884723
	1.252274
	3.084244
	4.162762
	4.218170
	3.207944
	1.411406
	-0.720439
	-2.670266
	-3.969399
	-4.299900
	-3.541938
	-1.905218
	0.189570
	2.233165
	3.736894
	4.332530
	3.835468
	2.380057
	0.351279
	-1.748343
	-3.423718
	-4.269942
	-4.055084
	-2.811679
	-0.882791
	1.251952
	3.078767
	4.162762
	4.223969
	3.210843
	1.409151
	-0.726559
	-2.668333
	-3.968110
	-4.301189
	-3.548058
	-1.908439
	0.192792
	2.236386
	3.738827
	4.327054
	3.839012
	2.382956
	0.353211
	-1.753497
	-3.424040
	-4.266721
	-4.050574
	-2.814578
	-0.885690
	1.253562
	3.081989
	4.164051
	4.217526
	3.209233
	1.409796
	-0.721727
	-2.672843
	-3.970043
	-4.299900
	-3.543548
	-1.907473
	0.186027
	2.235742
	3.738182
	4.331242
	3.833857
	2.382312
	0.353533
	-1.749309
	-3.425650
	-4.270264
	-4.050897
	-2.811357
	-0.883757
	1.249697
	3.081022
	4.164695
	4.223324
	3.206333
	1.407863
	-0.722372
	-2.667367
	-3.968754
	-4.301511
	-3.545159
	-1.904896
	0.193436
	2.233487
	3.736894
	4.331564
	3.839656
	2.381990
	0.351923
	-1.751886
	-3.422429
	-4.269298
	-4.056695
	-2.814256
	-0.882791
	1.255495
	3.081989
	4.160829
	4.219459
	3.214065
	1.409474
	-0.723982
	-2.673487
	-3.968432
	-4.298289
	-3.543548
	-1.909084
	0.188604
	2.236708
	3.739149
	4.331242
	3.833535
	2.381346
	0.352889
	-1.749309
	-3.424684
	-4.269942
	-4.056373
	-2.812323
	-0.882469
	1.253240
	3.080378
	4.162762
	4.222680
	3.210843
	1.409474
	-0.725271
	-2.668011
	-3.967144
	-4.299256
	-3.547414
	-1.909406
	0.192792
	2.237674
	3.736572
	4.328342
	3.839978
	2.382956
	0.353856
	-1.752531
	-3.423718
	-4.264788
	-4.050252
	-2.813612
	-0.886978
	1.253240
	3.082311
	4.164695
	4.218814
	3.208910
	1.411406
	-0.721727
	-2.668655
	-3.970365
	-4.299256
	-3.543870
	-1.905218
	0.189570
	2.232520
	3.737538
	4.331886
	3.840300
	2.382312
	0.351279
	-1.750276
	-3.422107
	-4.267043
	-4.055084
	-2.814578
	-0.883757
	1.254851
	3.079734
	4.161796
	4.220425
	3.212776
	1.410440
	-0.723016
	-2.672199
	-3.968432
	-4.297645
	-3.545159
	-1.907473
	0.189248
	2.237674
	3.738827
	4.329631
	3.833857
	2.383601
	0.354500
	-1.750920
	-3.425006
	-4.269942
	-4.050897
	-2.812323
	-0.885368
	1.250019
	3.081989
	4.164051
	4.221392
	3.207944
	1.408507
	-0.719473
	-2.668655
	-3.968754
	-4.302477
	-3.543548
	-1.905862
	0.192792
	2.232520
	3.733994
	4.331886
	3.838367
	2.384567
	0.351279
	-1.752209
	-3.423395
	-4.265755
	-4.055728
	-2.816189
	-0.883757
	1.252596
	3.082311
	4.160829
	4.219781
	3.211165
	1.412695
	-0.723660
	-2.670910
	-3.968754
	-4.298289
	-3.543226
	-1.910050
	0.189570
	2.235419
	3.739149
	4.330275
	3.836435
	2.381024
	0.354500
	-1.748343
	-3.425006
	-4.270264
	-4.054118
	-2.811357
	-0.882469
	1.248730
	3.079412
	4.164373
	4.223647
	3.208588
	1.407541
	-0.723338
	-2.667367
	-3.967788
	-4.301511
	-3.545481
	-1.905862
	0.192792
	2.235419
	3.734639
	4.330275
	3.840945
	2.383279
	0.351923
	-1.751242
	-3.423073
	-4.266077
	-4.053151
	-2.815223
	-0.886978
	1.251952
	3.081344
	4.162762
	4.219781
	3.208910
	1.413661
	-0.720761
	-2.667689
	-3.970687
	-4.299900
	-3.542904
	-1.906185
	0.188926
	2.232520
	3.738182
	4.332530
	3.839334
	2.381668
	0.351279
	-1.748021
	-3.422429
	-4.268654
	-4.055728
	-2.812323
	-0.883113
	1.252918
	3.078767
	4.160829
	4.223647
	3.211488
	1.411084
	-0.724304
	-2.667367
	-3.968110
	-4.299256
	-3.549024
	-1.908762
	0.191825
	2.234775
	3.735927
	4.326732
	3.839978
	2.383601
	0.353211
	-1.754141
	-3.424040
	-4.268010
	-4.054118
	-2.814900
	-0.888589
	1.254529
	3.082955
	4.165017
	4.218492
	3.206978
	1.411084
	-0.721083
	-2.667367
	-3.971976
	-4.299256
	-3.545803
	-1.905862
	0.186993
	2.231876
	3.738504
	4.332852
	3.837079
	2.380379
	0.354178
	-1.748665
	-3.420818
	-4.269942
	-4.053151
	-2.811679
	-0.883435
	1.250985
	3.075868
	4.165017
	4.222358
	3.211488
	1.405286
	-0.722372
	-2.666401
	-3.966822
	-4.299578
	-3.546447
	-1.905540
	0.190537
	2.235097
	3.732706
	4.331242
	3.839656
	2.384889
	0.351279
	-1.749632
	-3.421785
	-4.268332
	-4.053796
	-2.816511
	-0.883113
	1.252274
	3.079734
	4.159863
	4.222036
	3.213742
	1.412373
	-0.725593
	-2.670266
	-3.965855
	-4.299256
	-3.545481
	-1.908762
	0.191503
	2.236386
	3.736249
	4.327054
	3.839012
	2.383601
	0.353211
	-1.752853
	-3.425972
	-4.266721
	-4.052185
	-2.813934
	-0.887623
	1.252918
	3.081022
	4.162118
	4.217526
	3.210199
	1.413661
	-0.718828
	-2.669622
	-3.971009
	-4.297967
	-3.545481
	-1.905540
	0.186671
	2.233487
	3.737860
	4.331564
	3.836757
	2.380702
	0.354500
	-1.749632
	-3.421463
	-4.270909
	-4.053474
	-2.812968
	-0.883757
	1.249053
	3.076835
	4.162762
	4.222358
	3.211165
	1.407219
	-0.722050
	-2.668011
	-3.967466
	-4.304410
	-3.548380
	-1.908439
	0.191503
	2.232198
	3.733028
	4.330597
	3.840300
	2.384889
	0.351601
	-1.751886
	-3.422751
	-4.267687
	-4.054440
	-2.816189
	-0.887945
	1.252596
	3.080378
	4.161151
	4.217848
	3.210843
	1.410762
	-0.723660
	-2.671877
	-3.969077
	-4.298612
	-3.544515
	-1.910050
	0.186349
	2.236386
	3.737216
	4.331886
	3.833857
	2.384245
	0.355144
	-1.748665
	-3.427261
	-4.271231
	-4.055084
	-2.813612
	-0.884723
	1.244865
	3.077801
	4.163084
	4.221392
	3.207622
	1.408507
	-0.723016
	-2.667689
	-3.970365
	-4.303766
	-3.547414
	-1.906185
	0.188926
	2.230587
	3.732706
	4.329953
	3.839978
	2.381668
	0.351601
	-1.748987
	-3.422429
	-4.267687
	-4.055406
	-2.818122
	-0.884723
	1.250985
	3.078123
	4.159218
	4.222680
	3.212454
	1.411728
	-0.723660
	-2.668011
	-3.967788
	-4.301189
	-3.549669
	-1.910694
	0.189892
	2.233487
	3.736572
	4.324799
	3.837723
	2.384245
	0.355466
	-1.753175
	-3.425650
	-4.269298
	-4.053474
	-2.815867
	-0.888589
	1.251307
	3.081022
	4.162762
	4.217204
	3.208588
	1.409796
	-0.720439
	-2.672199
	-3.970687
	-4.300866
	-3.546125
	-1.909406
	0.186671
	2.231232
	3.736249
	4.330275
	3.837401
	2.380057
	0.355466
	-1.749309
	-3.424362
	-4.271553
	-4.055406
	-2.812001
	-0.886334
	1.249375
	3.075546
	4.162762
	4.221714
	3.212776
	1.407219
	-0.723982
	-2.668011
	-3.967144
	-4.301189
	-3.547092
	-1.911339
	0.190859
	2.234453
	3.735927
	4.328020
	3.838045
	2.385856
	0.357399
	-1.750276
	-3.425006
	-4.266077
	-4.052829
	-2.813612
	-0.890200
	1.250663
	3.079412
	4.164373
	4.218814
	3.210199
	1.413661
	-0.718506
	-2.669300
	-3.971331
	-4.299578
	-3.543870
	-1.906829
	0.186993
	2.233487
	3.737538
	4.333174
	3.836112
	2.381346
	0.353856
	-1.747377
	-3.424362
	-4.269620
	-4.056051
	-2.812968
	-0.884723
	1.250019
	3.075868
	4.162118
	4.222358
	3.212132
	1.411084
	-0.723016
	-2.667045
	-3.966499
	-4.299900
	-3.548058
	-1.908117
	0.189570
	2.235742
	3.734639
	4.327054
	3.838690
	2.385856
	0.353856
	-1.751564
	-3.421785
	-4.266399
	-4.051541
	-2.816833
	-0.888589
	1.251952
	3.081344
	4.163084
	4.219137
	3.210199
	1.412373
	-0.719795
	-2.669944
	-3.968754
	-4.300222
	-3.546125
	-1.910372
	0.186349
	2.233487
	3.739471
	4.332208
	3.835790
	2.383923
	0.355788
	-1.746410
	-3.423073
	-4.269298
	-4.052829
	-2.812323
	-0.884723
	1.247764
	3.080056
	4.165339
	4.224613
	3.210199
	1.409796
	-0.720117
	-2.664468
	-3.969077
	-4.302155
	-3.547736
	-1.907151
	0.189248
	2.232520
	3.734317
	4.332530
	3.840622
	2.383601
	0.353856
	-1.748343
	-3.420496
	-4.266721
	-4.054118
	-2.817477
	-0.885046
	1.250985
	3.081022
	4.160829
	4.219781
	3.212454
	1.414628
	-0.720117
	-2.670266
	-3.965533
	-4.298612
	-3.543870
	-1.911016
	0.188282
	2.235419
	3.735283
	4.329309
	3.836757
	2.387144
	0.357077
	-1.748343
	-3.425972
	-4.267043
	-4.053474
	-2.814900
	-0.888589
	1.247764
	3.080700
	4.164373
	4.221392
	3.208910
	1.413983
	-0.718828
	-2.665112
	-3.969399
	-4.300866
	-3.546447
	-1.907151
	0.188926
	2.228977
	3.736894
	4.330275
	3.840300
	2.382312
	0.354178
	-1.747055
	-3.420496
	-4.268976
	-4.056373
	-2.813612
	-0.886012
	1.253240
	3.077479
	4.162118
	4.222358
	3.213742
	1.411728
	-0.723016
	-2.668011
	-3.966499
	-4.298612
	-3.550957
	-1.909728
	0.189570
	2.235419
	3.735283
	4.328020
	3.839334
	2.386178
	0.356433
	-1.751564
	-3.420818
	-4.266721
	-4.053474
	-2.816189
	-0.886978
	1.253240
	3.078445
	4.161473
	4.218492
	3.214709
	1.413017
	-0.721727
	-2.668011
	-3.966822
	-4.298289
	-3.547092
	-1.911016
	0.187315
	2.234131
	3.734639
	4.328987
	3.838367
	2.385534
	0.355466
	-1.751886
	-3.423395
	-4.267365
	-4.053151
	-2.817155
	-0.888267
	1.249375
	3.079412
	4.162118
	4.218170
	3.211810
	1.414305
	-0.718184
	-2.670266
	-3.968110
	-4.299256
	-3.544515
	-1.910050
	0.184738
	2.230910
	3.737538
	4.331564
	3.839012
	2.382956
	0.354822
	-1.748021
	-3.424040
	-4.271231
	-4.054118
	-2.814256
	-0.886978
	1.248408
	3.078767
	4.163728
	4.223647
	3.209877
	1.411084
	-0.717540
	-2.665434
	-3.969077
	-4.302155
	-3.546447
	-1.908439
	0.187960
	2.229943
	3.736894
	4.329953
	3.837079
	2.382312
	0.357077
	-1.747699
	-3.422751
	-4.270909
	-4.054118
	-2.812646
	-0.888589
	1.248086
	3.078123
	4.165983
	4.222036
	3.210199
	1.410762
	-0.717540
	-2.665756
	-3.969399
	-4.301189
	-3.546770
	-1.909084
	0.185060
	2.231232
	3.736572
	4.332852
	3.837079
	2.384567
	0.357399
	-1.746088
	-3.423073
	-4.270587
	-4.054762
	-2.813934
	-0.886012
	1.245831
	3.078767
	4.164373
	4.223647
	3.210199
	1.411406
	-0.719473
	-2.666078
	-3.969721
	-4.302477
	-3.546125
	-1.909084
	0.186671
	2.229299
	3.737216
	4.330275
	3.841267
	2.381990
	0.355144
	-1.746088
	-3.421141
	-4.270587
	-4.056695
	-2.814900
	-0.886656
	1.247764
	3.075868
	4.164051
	4.224291
	3.213098
	1.411084
	-0.718828
	-2.665756
	-3.967788
	-4.301833
	-3.549347
	-1.906185
	0.188926
	2.230910
	3.732384
	4.331242
	3.841267
	2.386178
	0.354822
	-1.748987
	-3.419852
	-4.267365
	-4.055728
	-2.817800
	-0.888267
	1.250663
	3.078445
	4.160829
	4.223969
	3.216320
	1.412695
	-0.720117
	-2.666078
	-3.966177
	-4.300544
	-3.550957
	-1.910694
	0.188604
	2.233487
	3.732384
	4.329309
	3.840945
	2.386178
	0.354822
	-1.749632
	-3.419852
	-4.267687
	-4.056695
	-2.818122
	-0.885690
	1.251307
	3.077157
	4.160829
	4.221714
	3.215031
	1.412051
	-0.722372
	-2.667367
	-3.964567
	-4.300544
	-3.549347
	-1.911339
	0.187960
	2.234775
	3.734317
	4.328020
	3.839334
	2.387788
	0.356433
	-1.749309
	-3.423073
	-4.267043
	-4.052507
	-2.817800
	-0.888911
	1.250663
	3.080378
	4.161473
	4.219781
	3.211165
	1.415594
	-0.718506
	-2.668655
	-3.969077
	-4.298934
	-3.544515
	-1.911339
	0.185383
	2.231876
	3.737538
	4.330275
	3.837401
	2.386822
	0.359976
	-1.745766
	-3.424040
	-4.268976
	-4.055084
	-2.815223
	-0.892132
	1.243899
	3.078123
	4.163728
	4.222036
	3.210521
	1.412695
	-0.716573
	-2.665434
	-3.969077
	-4.298934
	-3.544515
	-1.907473
	0.185060
	2.231232
	3.736249
	4.331242
	3.837401
	2.382956
	0.357399
	-1.746732
	-3.421785
	-4.270587
	-4.053796
	-2.815545
	-0.886978
	1.246476
	3.076512
	4.165983
	4.223324
	3.212454
	1.410762
	-0.716896
	-2.665434
	-3.966177
	-4.303121
	-3.547414
	-1.906829
	0.187638
	2.231876
	3.732062
	4.331242
	3.840300
	2.387144
	0.352889
	-1.746410
	-3.420818
	-4.268332
	-4.056051
	-2.816833
	-0.885368
	1.248730
	3.077157
	4.160829
	4.224613
	3.213098
	1.411406
	-0.721727
	-2.664468
	-3.965533
	-4.300866
	-3.548702
	-1.910694
	0.190859
	2.233165
	3.734317
	4.329953
	3.840945
	2.385856
	0.355788
	-1.747699
	-3.418564
	-4.265110
	-4.054118
	-2.816833
	-0.889233
	1.250663
	3.078123
	4.161151
	4.218170
	3.214709
	1.414950
	-0.718828
	-2.669300
	-3.968110
	-4.298289
	-3.546770
	-1.911339
	0.183128
	2.234775
	3.737538
	4.332530
	3.838045
	2.385211
	0.359010
	-1.745122
	-3.423395
	-4.269942
	-4.053151
	-2.815545
	-0.887300
	1.245187
	3.078123
	4.165017
	4.223647
	3.210843
	1.410762
	-0.719150
	-2.665112
	-3.965855
	-4.302477
	-3.547414
	-1.908117
	0.188926
	2.230587
	3.733672
	4.329953
	3.840622
	2.386500
	0.354500
	-1.747699
	-3.419852
	-4.266721
	-4.055728
	-2.817477
	-0.887623
	1.250985
	3.078123
	4.159541
	4.222036
	3.215353
	1.415272
	-0.719150
	-2.667045
	-3.966177
	-4.297323
	-3.548058
	-1.912305
	0.186027
	2.233809
	3.735605
	4.328342
	3.837723
	2.388433
	0.359976
	-1.747055
	-3.423073
	-4.267365
	-4.052507
	-2.815867
	-0.888589
	1.245509
	3.080056
	4.165983
	4.223969
	3.212132
	1.413339
	-0.716573
	-2.664468
	-3.967466
	-4.304088
	-3.546770
	-1.910050
	0.187315
	2.229621
	3.733672
	4.331886
	3.840945
	2.383923
	0.353856
	-1.744800
	-3.420818
	-4.265755
	-4.057661
	-2.817477
	-0.886656
	1.250019
	3.076512
	4.158574
	4.222358
	3.213420
	1.414950
	-0.721727
	-2.665434
	-3.965855
	-4.299578
	-3.549347
	-1.913271
	0.187315
	2.231554
	3.736249
	4.327054
	3.841589
	2.389077
	0.359010
	-1.748987
	-3.423073
	-4.267687
	-4.054762
	-2.815867
	-0.893099
	1.247764
	3.078767
	4.163728
	4.219459
	3.211165
	1.413983
	-0.715929
	-2.665434
	-3.969077
	-4.300544
	-3.545803
	-1.908762
	0.185705
	2.228977
	3.734961
	4.333174
	3.841589
	2.384245
	0.356755
	-1.747377
	-3.419852
	-4.269298
	-4.057339
	-2.817477
	-0.885046
	1.248730
	3.076512
	4.161473
	4.223969
	3.216642
	1.413017
	-0.718828
	-2.665112
	-3.963922
	-4.302155
	-3.549347
	-1.909728
	0.188604
	2.231232
	3.732384
	4.327376
	3.841911
	2.387788
	0.356111
	-1.747699
	-3.420496
	-4.266399
	-4.056695
	-2.817800
	-0.888267
	1.250019
	3.076512
	4.160507
	4.222680
	3.215675
	1.414628
	-0.720117
	-2.666401
	-3.965211
	-4.299256
	-3.551601
	-1.912305
	0.187315
	2.232842
	3.733672
	4.328342
	3.839012
	2.388111
	0.357399
	-1.748665
	-3.419852
	-4.266399
	-4.053474
	-2.820054
	-0.888911
	1.248730
	3.079412
	4.159863
	4.220425
	3.214709
	1.416560
	-0.719150
	-2.666401
	-3.966499
	-4.299256
	-3.547736
	-1.913916
	0.186349
	2.232842
	3.737216
	4.328987
	3.841267
	2.388433
	0.360942
	-1.747055
	-3.422429
	-4.267365
	-4.053796
	-2.817477
	-0.892454
	1.246153
	3.079090
	4.164051
	4.219137
	3.211165
	1.415594
	-0.716896
	-2.667045
	-3.967466
	-4.299256
	-3.545159
	-1.911661
	0.183450
	2.229943
	3.736572
	4.329953
	3.838367
	2.384567
	0.358688
	-1.744800
	-3.421141
	-4.269942
	-4.054762
	-2.814578
	-0.888911
	1.247120
	3.073613
	4.162762
	4.224291
	3.214709
	1.412695
	-0.715929
	-2.662857
	-3.964567
	-4.301833
	-3.548702
	-1.910694
	0.186349
	2.228655
	3.730773
	4.331242
	3.840945
	2.388111
	0.356433
	-1.745122
	-3.419208
	-4.265755
	-4.058950
	-2.818766
	-0.888267
	1.247442
	3.077479
	4.158574
	4.223969
	3.215675
	1.416238
	-0.720439
	-2.665434
	-3.965533
	-4.299256
	-3.550313
	-1.915204
	0.186349
	2.232842
	3.736249
	4.327698
	3.841267
	2.386500
	0.359010
	-1.747377
	-3.421785
	-4.266077
	-4.053151
	-2.816833
	-0.892454
	1.248408
	3.076835
	4.163406
	4.219137
	3.211810
	1.415272
	-0.715607
	-2.667367
	-3.969077
	-4.299900
	-3.549024
	-1.909728
	0.181517
	2.229621
	3.735283
	4.332530
	3.839334
	2.385534
	0.359010
	-1.744478
	-3.419530
	-4.271553
	-4.057017
	-2.816511
	-0.889233
	1.244543
	3.075868
	4.161796
	4.225579
	3.212454
	1.412695
	-0.717540
	-2.663501
	-3.965855
	-4.302477
	-3.549024
	-1.911661
	0.187638
	2.228333
	3.731095
	4.328664
	3.842233
	2.387466
	0.356433
	-1.748665
	-3.420174
	-4.267365
	-4.056373
	-2.820054
	-0.890844
	1.248408
	3.078123
	4.162118
	4.219137
	3.215675
	1.415916
	-0.716573
	-2.668655
	-3.967466
	-4.300544
	-3.547092
	-1.911339
	0.181839
	2.231876
	3.735927
	4.330275
	3.837079
	2.386500
	0.359010
	-1.743511
	-3.422429
	-4.269620
	-4.054118
	-2.815545
	-0.888911
	1.245187
	3.074580
	4.163084
	4.224613
	3.213742
	1.412695
	-0.717540
	-2.661891
	-3.966499
	-4.302155
	-3.551279
	-1.909728
	0.186671
	2.228333
	3.731417
	4.329953
	3.841589
	2.386500
	0.356433
	-1.745122
	-3.417275
	-4.267043
	-4.057661
	-2.820699
	-0.888589
	1.246798
	3.075224
	4.159218
	4.221714
	3.216964
	1.414950
	-0.717540
	-2.666078
	-3.963922
	-4.299900
	-3.549024
	-1.915526
	0.186027
	2.233165
	3.733350
	4.328342
	3.839978
	2.389721
	0.358043
	-1.747055
	-3.423395
	-4.266077
	-4.054118
	-2.820054
	-0.892777
	1.246798
	3.078767
	4.160185
	4.218814
	3.212132
	1.417205
	-0.715929
	-2.666401
	-3.966499
	-4.298934
	-3.545481
	-1.912627
	0.183128
	2.229299
	3.737216
	4.329631
	3.838045
	2.386500
	0.360942
	-1.744478
	-3.421141
	-4.269942
	-4.055728
	-2.814578
	-0.888911
	1.246476
	3.073291
	4.162440
	4.223324
	3.215675
	1.413983
	-0.717540
	-2.661891
	-3.964889
	-4.300866
	-3.553212
	-1.912949
	0.185383
	2.230910
	3.730773
	4.327054
	3.841589
	2.388433
	0.359010
	-1.747377
	-3.417919
	-4.268010
	-4.056051
	-2.820377
	-0.888589
	1.249053
	3.078123
	4.161796
	4.221069
	3.216964
	1.416238
	-0.718184
	-2.667689
	-3.965533
	-4.300544
	-3.549669
	-1.914560
	0.183128
	2.232842
	3.734639
	4.328020
	3.836757
	2.388755
	0.359332
	-1.744800
	-3.421141
	-4.266721
	-4.053474
	-2.819088
	-0.893421
	1.245831
	3.077801
	4.162762
	4.220747
	3.212454
	1.415594
	-0.714641
	-2.667689
	-3.967466
	-4.298934
	-3.546770
	-1.914560
	0.182161
	2.232198
	3.734961
	4.330919
	3.837079
	2.389721
	0.361265
	-1.743511
	-3.422429
	-4.268010
	-4.054118
	-2.817155
	-0.891488
	1.240999
	3.076512
	4.162762
	4.224291
	3.211810
	1.414305
	-0.715929
	-2.663824
	-3.966499
	-4.301833
	-3.546770
	-1.911983
	0.186349
	2.226722
	3.731417
	4.329631
	3.842233
	2.387788
	0.356755
	-1.743833
	-3.419530
	-4.268010
	-4.059916
	-2.819088
	-0.890200
	1.246476
	3.074580
	4.158896
	4.223002
	3.216642
	1.417205
	-0.719150
	-2.664790
	-3.964889
	-4.299900
	-3.551279
	-1.914560
	0.184738
	2.230910
	3.734961
	4.326732
	3.839978
	2.388755
	0.360620
	-1.747055
	-3.421463
	-4.268010
	-4.054440
	-2.819410
	-0.893421
	1.245831
	3.077801
	4.161796
	4.219781
	3.214387
	1.417849
	-0.714641
	-2.667367
	-3.966822
	-4.299900
	-3.548058
	-1.913916
	0.180229
	2.229621
	3.734961
	4.331886
	3.837401
	2.388111
	0.361265
	-1.743189
	-3.422429
	-4.267365
	-4.056051
	-2.816833
	-0.890844
	1.241966
	3.077157
	4.162118
	4.222680
	3.210843
	1.417205
	-0.714641
	-2.663501
	-3.969399
	-4.303121
	-3.548380
	-1.913271
	0.182161
	2.226078
	3.734961
	4.331886
	3.841267
	2.386178
	0.359976
	-1.742867
	-3.421785
	-4.269942
	-4.056695
	-2.817155
	-0.890200
	1.243254
	3.075868
	4.162762
	4.224935
	3.211810
	1.414950
	-0.715607
	-2.662213
	-3.966177
	-4.303443
	-3.548702
	-1.911983
	0.185705
	2.226078
	3.732062
	4.330597
	3.842233
	2.387788
	0.356755
	-1.743833
	-3.419530
	-4.268654
	-4.059594
	-2.819410
	-0.891166
	1.245509
	3.072647
	4.159863
	4.225579
	3.216642
	1.415594
	-0.716896
	-2.660924
	-3.965211
	-4.301511
	-3.551601
	-1.912305
	0.185060
	2.229621
	3.731095
	4.330919
	3.843522
	2.387144
	0.358365
	-1.742867
	-3.417275
	-4.266399
	-4.058628
	-2.818444
	-0.888911
	1.247764
	3.074257
	4.161473
	4.223969
	3.218575
	1.416883
	-0.717862
	-2.664468
	-3.964567
	-4.301511
	-3.552246
	-1.911983
	0.184094
	2.231554
	3.732062
	4.328664
	3.841911
	2.390688
	0.358043
	-1.745444
	-3.417597
	-4.266721
	-4.055084
	-2.821665
	-0.888911
	1.247120
	3.076512
	4.159541
	4.222036
	3.217286
	1.416238
	-0.715929
	-2.666401
	-3.964245
	-4.299900
	-3.549347
	-1.915526
	0.184416
	2.230265
	3.733672
	4.328020
	3.840622
	2.391010
	0.360942
	-1.746410
	-3.421463
	-4.265110
	-4.056373
	-2.821021
	-0.894065
	1.245187
	3.077157
	4.158252
	4.222036
	3.215997
	1.418815
	-0.717218
	-2.663501
	-3.962956
	-4.297967
	-3.547414
	-1.916170
	0.185060
	2.230587
	3.734961
	4.327376
	3.839656
	2.388111
	0.362553
	-1.744800
	-3.423718
	-4.268010
	-4.054440
	-2.817155
	-0.893421
	1.244865
	3.076512
	4.165017
	4.223324
	3.213098
	1.417527
	-0.713996
	-2.663501
	-3.967788
	-4.302477
	-3.549347
	-1.910694
	0.183772
	2.226722
	3.733994
	4.331886
	3.841267
	2.385534
	0.359010
	-1.741901
	-3.416953
	-4.270264
	-4.056373
	-2.816189
	-0.889555
	1.244221
	3.073291
	4.162762
	4.223647
	3.214387
	1.413017
	-0.713030
	-2.662213
	-3.967144
	-4.303766
	-3.548058
	-1.912949
	0.183128
	2.225755
	3.733350
	4.332852
	3.840945
	2.385856
	0.359654
	-1.740612
	-3.419530
	-4.269298
	-4.056373
	-2.817155
	-0.890844
	1.242288
	3.073935
	4.161796
	4.224291
	3.213742
	1.414628
	-0.715929
	-2.659958
	-3.964567
	-4.302477
	-3.552890
	-1.911983
	0.182483
	2.227366
	3.731739
	4.331564
	3.843522
	2.390043
	0.358365
	-1.743189
	-3.417275
	-4.270264
	-4.057339
	-2.819088
	-0.889877
	1.243899
	3.073935
	4.162440
	4.224291
	3.215353
	1.413339
	-0.714319
	-2.662535
	-3.966177
	-4.303121
	-3.548380
	-1.913271
	0.184416
	2.225433
	3.732062
	4.331886
	3.842233
	2.386178
	0.360620
	-1.742223
	-3.419208
	-4.268976
	-4.057339
	-2.817477
	-0.891488
	1.241321
	3.073613
	4.163084
	4.223969
	3.214387
	1.416238
	-0.713030
	-2.661247
	-3.967788
	-4.301511
	-3.549347
	-1.912305
	0.179584
	2.226078
	3.733028
	4.331242
	3.840300
	2.388433
	0.362231
	-1.740612
	-3.420818
	-4.268654
	-4.054440
	-2.818766
	-0.891810
	1.242288
	3.077479
	4.162440
	4.223647
	3.211488
	1.418815
	-0.713352
	-2.664468
	-3.969399
	-4.302155
	-3.549024
	-1.914560
	0.181195
	2.224789
	3.735283
	4.331242
	3.840300
	2.385534
	0.361909
	-1.742223
	-3.418886
	-4.270264
	-4.056695
	-2.816189
	-0.892132
	1.243899
	3.072647
	4.162118
	4.223324
	3.215031
	1.413017
	-0.714319
	-2.662213
	-3.965855
	-4.302799
	-3.549024
	-1.911983
	0.181839
	2.227044
	3.731095
	4.333497
	3.841589
	2.388433
	0.360298
	-1.741256
	-3.419852
	-4.269620
	-4.056051
	-2.818766
	-0.891166
	1.241321
	3.072969
	4.161151
	4.224291
	3.213098
	1.416883
	-0.713674
	-2.661891
	-3.965533
	-4.303443
	-3.548380
	-1.913271
	0.182161
	2.224789
	3.733028
	4.329953
	3.843199
	2.386822
	0.358688
	-1.742223
	-3.417275
	-4.269620
	-4.060560
	-2.819088
	-0.891810
	1.244865
	3.071036
	4.161796
	4.225257
	3.219219
	1.414950
	-0.714641
	-2.661569
	-3.965855
	-4.304410
	-3.552246
	-1.912949
	0.182483
	2.226400
	3.730129
	4.332852
	3.841589
	2.387466
	0.360620
	-1.740612
	-3.417919
	-4.268332
	-4.057661
	-2.818766
	-0.889877
	1.242932
	3.072647
	4.161151
	4.224613
	3.216642
	1.415916
	-0.714963
	-2.661247
	-3.963600
	-4.302799
	-3.550313
	-1.913593
	0.182161
	2.226722
	3.730451
	4.330597
	3.842877
	2.389077
	0.359010
	-1.740612
	-3.416309
	-4.264788
	-4.058628
	-2.821021
	-0.891810
	1.244543
	3.072969
	4.157608
	4.223969
	3.215675
	1.418171
	-0.716573
	-2.663179
	-3.964567
	-4.298289
	-3.553212
	-1.915204
	0.181517
	2.229299
	3.731417
	4.329309
	3.844166
	2.393909
	0.360298
	-1.745444
	-3.418886
	-4.266077
	-4.056695
	-2.821665
	-0.895031
	1.243899
	3.077801
	4.157608
	4.222680
	3.216320
	1.419460
	-0.716896
	-2.664468
	-3.964245
	-4.297645
	-3.548058
	-1.917459
	0.181517
	2.228655
	3.733672
	4.328664
	3.838690
	2.390043
	0.364164
	-1.742545
	-3.420818
	-4.267043
	-4.055084
	-2.820377
	-0.894387
	1.240033
	3.076512
	4.161796
	4.222680
	3.213742
	1.421714
	-0.713352
	-2.662213
	-3.967144
	-4.301511
	-3.547092
	-1.913593
	0.180873
	2.225433
	3.733994
	4.329953
	3.840300
	2.385856
	0.361587
	-1.739968
	-3.417919
	-4.269942
	-4.057983
	-2.818766
	-0.892132
	1.244221
	3.071358
	4.162762
	4.223647
	3.215675
	1.415272
	-0.712386
	-2.662213
	-3.965533
	-4.304410
	-3.550635
	-1.913916
	0.181517
	2.225111
	3.732062
	4.332852
	3.841589
	2.389399
	0.359976
	-1.739646
	-3.417919
	-4.267365
	-4.058950
	-2.818766
	-0.892454
	1.242932
	3.073291
	4.161151
	4.224935
	3.215675
	1.415594
	-0.715607
	-2.659958
	-3.965533
	-4.303443
	-3.551601
	-1.913916
	0.182161
	2.224789
	3.730129
	4.331886
	3.843199
	2.388755
	0.359010
	-1.741578
	-3.417597
	-4.266721
	-4.059594
	-2.820699
	-0.890522
	1.242288
	3.072325
	4.158574
	4.224613
	3.216642
	1.418171
	-0.717218
	-2.661569
	-3.963600
	-4.301189
	-3.552568
	-1.915526
	0.182161
	2.227044
	3.730129
	4.326732
	3.843844
	2.391010
	0.360620
	-1.745444
	-3.417597
	-4.268010
	-4.057983
	-2.824242
	-0.892454
	1.244543
	3.073291
	4.157930
	4.221392
	3.218575
	1.419137
	-0.714963
	-2.665756
	-3.964245
	-4.301511
	-3.552246
	-1.919392
	0.180873
	2.228977
	3.732062
	4.328987
	3.840300
	2.393265
	0.362231
	-1.742223
	-3.422107
	-4.268332
	-4.055406
	-2.819732
	-0.895998
	1.241966
	3.076512
	4.160185
	4.222036
	3.212776
	1.419782
	-0.713996
	-2.663824
	-3.969077
	-4.300222
	-3.549991
	-1.916170
	0.178618
	2.228010
	3.733672
	4.329631
	3.838690
	2.389399
	0.365774
	-1.741256
	-3.418564
	-4.267043
	-4.055728
	-2.820699
	-0.897609
	1.240033
	3.074902
	4.163406
	4.221069
	3.213742
	1.419460
	-0.711742
	-2.662535
	-3.966499
	-4.302155
	-3.549024
	-1.916815
	0.178940
	2.227688
	3.734639
	4.332208
	3.841267
	2.389399
	0.364486
	-1.739968
	-3.420818
	-4.268976
	-4.057983
	-2.819410
	-0.894709
	1.242288
	3.071036
	4.162118
	4.225902
	3.216642
	1.416238
	-0.715285
	-2.660602
	-3.963600
	-4.300866
	-3.553212
	-1.913271
	0.183128
	2.226722
	3.730451
	4.328342
	3.845132
	2.390688
	0.359976
	-1.745122
	-3.417919
	-4.267687
	-4.056051
	-2.822309
	-0.895676
	1.244221
	3.075224
	4.161473
	4.220425
	3.215997
	1.420426
	-0.709809
	-2.661569
	-3.966499
	-4.300866
	-3.549991
	-1.914882
	0.178940
	2.223823
	3.730451
	4.333174
	3.842555
	2.390043
	0.360298
	-1.740612
	-3.417597
	-4.266399
	-4.060882
	-2.821987
	-0.892454
	1.244543
	3.076190
	4.158896
	4.221714
	3.217608
	1.422037
	-0.713352
	-2.663179
	-3.966822
	-4.300222
	-3.549669
	-1.917781
	0.178296
	2.225755
	3.733994
	4.329953
	3.842233
	2.386500
	0.362553
	-1.740612
	-3.416953
	-4.268010
	-4.059594
	-2.821021
	-0.892777
	1.245187
	3.071680
	4.160185
	4.223969
	3.218897
	1.419137
	-0.715929
	-2.664146
	-3.963600
	-4.301511
	-3.553856
	-1.920036
	0.180229
	2.228333
	3.731095
	4.326410
	3.841267
	2.393587
	0.361909
	-1.743833
	-3.419208
	-4.266077
	-4.057017
	-2.821987
	-0.897931
	1.242932
	3.076512
	4.160185
	4.221714
	3.216964
	1.421070
	-0.712064
	-2.662857
	-3.965533
	-4.298934
	-3.549991
	-1.917459
	0.178618
	2.227044
	3.732706
	4.329953
	3.839656
	2.390043
	0.366419
	-1.741256
	-3.419208
	-4.269942
	-4.055406
	-2.819732
	-0.893743
	1.239067
	3.072325
	4.163084
	4.223002
	3.215031
	1.418815
	-0.710453
	-2.661891
	-3.966822
	-4.302477
	-3.549347
	-1.916493
	0.177974
	2.225755
	3.732384
	4.332852
	3.840300
	2.391010
	0.364486
	-1.738679
	-3.420818
	-4.269620
	-4.055728
	-2.820699
	-0.894387
	1.239389
	3.075546
	4.161473
	4.223969
	3.212454
	1.420104
	-0.711419
	-2.661891
	-3.967788
	-4.301833
	-3.550313
	-1.914560
	0.179584
	2.222534
	3.734317
	4.329631
	3.842555
	2.387144
	0.362553
	-1.739968
	-3.416309
	-4.269620
	-4.058305
	-2.818766
	-0.894709
	1.240033
	3.071358
	4.161796
	4.224291
	3.215031
	1.416238
	-0.712064
	-2.659958
	-3.966177
	-4.303766
	-3.554178
	-1.915848
	0.181517
	2.225755
	3.730129
	4.329953
	3.844488
	2.391332
	0.361909
	-1.743511
	-3.416953
	-4.266721
	-4.059594
	-2.822954
	-0.894709
	1.243899
	3.073291
	4.158896
	4.221714
	3.220185
	1.420748
	-0.714319
	-2.662857
	-3.963600
	-4.299578
	-3.549669
	-1.916815
	0.178618
	2.228010
	3.733994
	4.329953
	3.839978
	2.390043
	0.365452
	-1.739324
	-3.418886
	-4.269298
	-4.055084
	-2.820054
	-0.893743
	1.239711
	3.073613
	4.162440
	4.224291
	3.215031
	1.420104
	-0.709487
	-2.661247
	-3.965533
	-4.303443
	-3.550635
	-1.915526
	0.180873
	2.223501
	3.730129
	4.331242
	3.844166
	2.391010
	0.361265
	-1.738035
	-3.416309
	-4.268010
	-4.061527
	-2.820054
	-0.894065
	1.242288
	3.072647
	4.161151
	4.226868
	3.216964
	1.417527
	-0.713030
	-2.659958
	-3.965211
	-4.304410
	-3.550957
	-1.915526
	0.182161
	2.223178
	3.730451
	4.330919
	3.844810
	2.389077
	0.362231
	-1.738679
	-3.415987
	-4.266399
	-4.059594
	-2.821021
	-0.894709
	1.241321
	3.070714
	4.161796
	4.225902
	3.216642
	1.418171
	-0.712064
	-2.658025
	-3.963600
	-4.303121
	-3.553212
	-1.914560
	0.181517
	2.225111
	3.731095
	4.330597
	3.846421
	2.391654
	0.360620
	-1.741256
	-3.415342
	-4.265755
	-4.059594
	-2.821343
	-0.894065
	1.243899
	3.071358
	4.158252
	4.223969
	3.218575
	1.418815
	-0.714319
	-2.658347
	-3.962956
	-4.299578
	-3.555145
	-1.917459
	0.181517
	2.225433
	3.729485
	4.328342
	3.844810
	2.392943
	0.362231
	-1.742867
	-3.415664
	-4.264788
	-4.059594
	-2.823920
	-0.894387
	1.242932
	3.075224
	4.157286
	4.223969
	3.220185
	1.423003
	-0.712708
	-2.660924
	-3.962634
	-4.300222
	-3.550635
	-1.919714
	0.181195
	2.227688
	3.731095
	4.327054
	3.843522
	2.392620
	0.363197
	-1.742545
	-3.417919
	-4.264788
	-4.057661
	-2.823920
	-0.894709
	1.243899
	3.073935
	4.158252
	4.223969
	3.219541
	1.421714
	-0.715285
	-2.660924
	-3.963922
	-4.300544
	-3.554823
	-1.915848
	0.181195
	2.226400
	3.729807
	4.328020
	3.845132
	2.392298
	0.361587
	-1.740290
	-3.414376
	-4.265110
	-4.059594
	-2.822309
	-0.895998
	1.242932
	3.071036
	4.158896
	4.224613
	3.218897
	1.418171
	-0.712708
	-2.658670
	-3.963600
	-4.301511
	-3.557078
	-1.918103
	0.180229
	2.225755
	3.730451
	4.329631
	3.846743
	2.393587
	0.364164
	-1.741578
	-3.415987
	-4.266077
	-4.059594
	-2.822954
	-0.895031
	1.242932
	3.072003
	4.157286
	4.225257
	3.219541
	1.421714
	-0.714963
	-2.660280
	-3.963278
	-4.299578
	-3.553856
	-1.918103
	0.180551
	2.227688
	3.729807
	4.328987
	3.846743
	2.392298
	0.362231
	-1.742545
	-3.415020
	-4.266077
	-4.058305
	-2.821987
	-0.894065
	1.245509
	3.071036
	4.158252
	4.225257
	3.221152
	1.421070
	-0.714319
	-2.658670
	-3.962956
	-4.299578
	-3.553856
	-1.916815
	0.181839
	2.225111
	3.729807
	4.328664
	3.845454
	2.393587
	0.363197
	-1.741901
	-3.415342
	-4.266399
	-4.060882
	-2.822631
	-0.895031
	1.243576
	3.071036
	4.158252
	4.224613
	3.219863
	1.419460
	-0.713352
	-2.658347
	-3.963922
	-4.299578
	-3.554501
	-1.918103
	0.181839
	2.227044
	3.728518
	4.326410
	3.846421
	2.392943
	0.364486
	-1.741901
	-3.415664
	-4.265110
	-4.059594
	-2.823920
	-0.895354
	1.243254
	3.072969
	4.158896
	4.223969
	3.219863
	1.422037
	-0.714319
	-2.659314
	-3.962634
	-4.299578
	-3.555467
	-1.917459
	0.181517
	2.225755
	3.731739
	4.327698
	3.846421
	2.394875
	0.363519
	-1.741901
	-3.415987
	-4.265433
	-4.058628
	-2.823920
	-0.895676
	1.241644
	3.072969
	4.155997
	4.225902
	3.219863
	1.421070
	-0.713352
	-2.658670
	-3.961023
	-4.297967
	-3.553856
	-1.918425
	0.181195
	2.225433
	3.730451
	4.328342
	3.845454
	2.393909
	0.363519
	-1.743189
	-3.416631
	-4.264466
	-4.059272
	-2.825531
	-0.896320
	1.242932
	3.073291
	4.159218
	4.223969
	3.221796
	1.423003
	-0.714319
	-2.659314
	-3.963600
	-4.301189
	-3.554178
	-1.917781
	0.180229
	2.223823
	3.728196
	4.330597
	3.846099
	2.391976
	0.363197
	-1.736424
	-3.416309
	-4.267365
	-4.058628
	-2.820377
	-0.894387
	1.239067
	3.072325
	4.162440
	4.225579
	3.214065
	1.420104
	-0.709165
	-2.659314
	-3.966177
	-4.303121
	-3.550635
	-1.916170
	0.177007
	2.223178
	3.732062
	4.331242
	3.840945
	2.391654
	0.365774
	-1.737069
	-3.417597
	-4.268654
	-4.057017
	-2.821987
	-0.897931
	1.235523
	3.072969
	4.160185
	4.223324
	3.214387
	1.422359
	-0.708198
	-2.659636
	-3.965533
	-4.300866
	-3.550635
	-1.919070
	0.175719
	2.228333
	3.732706
	4.332208
	3.840945
	2.394553
	0.367385
	-1.740612
	-3.418886
	-4.266721
	-4.056051
	-2.823598
	-0.899219
	1.239067
	3.072647
	4.162440
	4.219781
	3.217930
	1.422359
	-0.709809
	-2.660602
	-3.965211
	-4.298934
	-3.551601
	-1.918425
	0.176685
	2.226722
	3.733350
	4.327376
	3.843522
	2.394231
	0.366096
	-1.741901
	-3.418241
	-4.266721
	-4.057661
	-2.824242
	-0.899219
	1.242288
	3.072325
	4.158896
	4.221392
	3.220507
	1.422681
	-0.712386
	-2.660602
	-3.963278
	-4.299256
	-3.556111
	-1.918103
	0.178940
	2.224145
	3.727230
	4.328020
	3.845777
	2.393587
	0.363842
	-1.740612
	-3.414054
	-4.266077
	-4.060560
	-2.824242
	-0.896320
	1.242610
	3.070070
	4.160507
	4.226546
	3.222118
	1.419137
	-0.709487
	-2.658025
	-3.964567
	-4.304732
	-3.553212
	-1.916815
	0.177007
	2.221890
	3.729485
	4.332208
	3.844166
	2.391010
	0.366741
	-1.736747
	-3.415987
	-4.269298
	-4.057017
	-2.823598
	-0.896642
	1.236490
	3.072325
	4.162762
	4.224613
	3.215997
	1.422037
	-0.709487
	-2.659314
	-3.964245
	-4.303443
	-3.550313
	-1.918747
	0.176363
	2.223178
	3.733350
	4.330275
	3.841589
	2.392620
	0.366741
	-1.738035
	-3.417597
	-4.267043
	-4.057017
	-2.821021
	-0.899541
	1.238422
	3.073291
	4.160507
	4.222680
	3.216642
	1.423325
	-0.708842
	-2.659314
	-3.965533
	-4.298289
	-3.552890
	-1.919714
	0.174430
	2.222856
	3.732062
	4.327376
	3.839978
	2.393265
	0.367385
	-1.740290
	-3.418241
	-4.266721
	-4.057017
	-2.821665
	-0.899863
	1.239389
	3.072647
	4.162118
	4.223647
	3.217930
	1.424614
	-0.708198
	-2.658992
	-3.965533
	-4.300222
	-3.551601
	-1.918425
	0.174752
	2.226078
	3.731739
	4.328987
	3.842555
	2.394875
	0.367707
	-1.739646
	-3.417919
	-4.266399
	-4.055728
	-2.822954
	-0.897931
	1.241644
	3.074257
	4.161473
	4.221714
	3.219219
	1.423647
	-0.707232
	-2.661247
	-3.963278
	-4.300222
	-3.550957
	-1.919392
	0.175719
	2.227688
	3.731095
	4.328342
	3.840945
	2.395842
	0.366741
	-1.737713
	-3.418241
	-4.265755
	-4.054762
	-2.822631
	-0.898253
	1.236167
	3.073935
	4.160507
	4.223969
	3.215675
	1.421714
	-0.706910
	-2.657381
	-3.964245
	-4.300544
	-3.550313
	-1.917459
	0.176685
	2.225433
	3.734639
	4.334141
	3.842877
	2.394553
	0.368674
	-1.736102
	-3.417919
	-4.268010
	-4.058950
	-2.821987
	-0.897286
	1.236812
	3.070714
	4.162118
	4.225902
	3.218897
	1.421070
	-0.709809
	-2.656737
	-3.964245
	-4.303443
	-3.553856
	-1.915848
	0.179906
	2.224789
	3.729162
	4.331242
	3.847065
	2.393587
	0.363197
	-1.738357
	-3.412765
	-4.266077
	-4.059916
	-2.823598
	-0.894709
	1.240033
	3.068781
	4.158896
	4.225902
	3.220185
	1.420426
	-0.709487
	-2.657059
	-3.960379
	-4.302155
	-3.554178
	-1.917459
	0.178940
	2.224789
	3.728196
	4.332852
	3.846743
	2.395842
	0.365130
	-1.737391
	-3.414698
	-4.264466
	-4.060238
	-2.824886
	-0.896964
	1.240677
	3.070392
	4.156641
	4.225579
	3.221796
	1.423969
	-0.709809
	-2.656737
	-3.961990
	-4.299578
	-3.556433
	-1.919070
	0.178618
	2.225111
	3.727230
	4.328987
	3.848998
	2.396164
	0.366096
	-1.736747
	-3.413087
	-4.265755
	-4.058950
	-2.825853
	-0.895354
	1.240355
	3.070070
	4.159541
	4.224935
	3.221796
	1.422037
	-0.710453
	-2.658025
	-3.960701
	-4.304410
	-3.553534
	-1.917459
	0.179584
	2.224467
	3.729485
	4.332530
	3.845454
	2.394231
	0.363197
	-1.734814
	-3.413732
	-4.267365
	-4.060560
	-2.823276
	-0.895998
	1.238744
	3.070070
	4.159218
	4.227834
	3.220185
	1.420748
	-0.708842
	-2.655770
	-3.962634
	-4.302477
	-3.551601
	-1.917137
	0.179584
	2.220279
	3.730451
	4.330597
	3.844166
	2.391976
	0.365452
	-1.737391
	-3.414054
	-4.268332
	-4.060238
	-2.823276
	-0.896642
	1.236167
	3.068459
	4.161151
	4.225902
	3.220507
	1.421714
	-0.704977
	-2.656415
	-3.963600
	-4.304410
	-3.551601
	-1.918425
	0.173464
	2.220923
	3.729162
	4.334141
	3.845132
	2.391976
	0.366096
	-1.735780
	-3.416309
	-4.268332
	-4.058950
	-2.822954
	-0.896964
	1.238744
	3.069103
	4.161796
	4.225579
	3.217608
	1.421392
	-0.708198
	-2.657059
	-3.964245
	-4.302799
	-3.551924
	-1.916815
	0.176685
	2.220923
	3.729807
	4.329953
	3.844166
	2.392943
	0.368351
	-1.736102
	-3.414376
	-4.269298
	-4.056373
	-2.822631
	-0.896642
	1.235523
	3.069425
	4.160507
	4.225257
	3.218897
	1.420104
	-0.707232
	-2.656737
	-3.961345
	-4.304732
	-3.553856
	-1.919392
	0.177974
	2.221890
	3.729807
	4.333497
	3.844810
	2.392620
	0.366419
	-1.736102
	-3.414698
	-4.266721
	-4.061205
	-2.822954
	-0.896964
	1.237456
	3.069103
	4.160507
	4.226224
	3.218897
	1.422681
	-0.707554
	-2.654804
	-3.962312
	-4.302799
	-3.553212
	-1.917781
	0.176685
	2.221568
	3.732384
	4.331886
	3.846099
	2.390366
	0.367063
	-1.736424
	-3.412765
	-4.268976
	-4.058628
	-2.822309
	-0.895998
	1.237134
	3.067493
	4.161151
	4.225579
	3.220185
	1.420748
	-0.705621
	-2.656415
	-3.961668
	-4.304088
	-3.552246
	-1.917781
	0.175719
	2.220601
	3.730773
	4.331564
	3.842233
	2.394553
	0.368674
	-1.735780
	-3.417275
	-4.267043
	-4.057661
	-2.821987
	-0.900508
	1.236490
	3.073935
	4.160507
	4.223324
	3.218897
	1.426869
	-0.708198
	-2.659958
	-3.964567
	-4.300544
	-3.553212
	-1.923579
	0.178296
	2.224789
	3.730451
	4.326087
	3.845132
	2.396486
	0.369318
	-1.739646
	-3.413732
	-4.264466
	-4.057017
	-2.826819
	-0.898575
	1.240999
	3.070714
	4.158896
	4.222680
	3.222762
	1.423325
	-0.710453
	-2.658347
	-3.960057
	-4.301189
	-3.556111
	-1.919392
	0.176363
	2.226078
	3.728196
	4.328664
	3.845454
	2.397452
	0.365452
	-1.738035
	-3.413410
	-4.264466
	-4.058305
	-2.828752
	-0.897931
	1.239067
	3.071358
	4.155353
	4.224935
	3.220829
	1.424936
	-0.709487
	-2.658992
	-3.961023
	-4.300222
	-3.555789
	-1.921002
	0.177974
	2.223823
	3.729162
	4.328987
	3.845777
	2.398741
	0.367063
	-1.739001
	-3.414376
	-4.264466
	-4.059272
	-2.826819
	-0.898897
	1.238422
	3.072325
	4.156319
	4.225257
	3.223084
	1.426224
	-0.709487
	-2.655770
	-3.961990
	-4.300866
	-3.555145
	-1.922613
	0.177329
	2.222856
	3.727230
	4.326732
	3.847709
	2.396808
	0.366419
	-1.738679
	-3.415020
	-4.266721
	-4.060882
	-2.825208
	-0.896320
	1.241966
	3.067815
	4.157608
	4.223969
	3.221152
	1.423003
	-0.710131
	-2.657381
	-3.961345
	-4.301833
	-3.557078
	-1.920036
	0.177007
	2.224789
	3.726585
	4.327054
	3.846421
	2.396486
	0.367385
	-1.738679
	-3.411477
	-4.266077
	-4.059272
	-2.826497
	-0.899219
	1.240677
	3.068781
	4.156319
	4.223969
	3.221796
	1.422037
	-0.709809
	-2.656093
	-3.962312
	-4.302477
	-3.558366
	-1.920358
	0.176685
	2.222534
	3.725297
	4.330919
	3.845454
	2.395520
	0.365130
	-1.735780
	-3.413410
	-4.266399
	-4.060560
	-2.825531
	-0.897609
	1.236167
	3.066848
	4.157286
	4.225257
	3.222118
	1.422359
	-0.709809
	-2.656415
	-3.961023
	-4.304410
	-3.555145
	-1.919714
	0.175397
	2.221890
	3.726585
	4.331242
	3.846421
	2.396486
	0.363519
	-1.737713
	-3.414376
	-4.266077
	-4.060238
	-2.829074
	-0.897931
	1.239067
	3.070070
	4.156319
	4.223647
	3.222440
	1.424614
	-0.708842
	-2.659958
	-3.961023
	-4.301511
	-3.554178
	-1.923902
	0.176041
	2.222534
	3.728840
	4.327054
	3.843199
	2.397452
	0.369318
	-1.738679
	-3.416309
	-4.264788
	-4.058628
	-2.825208
	-0.902763
	1.236812
	3.072325
	4.159541
	4.221714
	3.217930
	1.425580
	-0.706910
	-2.657381
	-3.966499
	-4.300866
	-3.552568
	-1.921325
	0.172820
	2.220279
	3.731739
	4.330275
	3.843522
	2.393909
	0.369962
	-1.734170
	-3.416631
	-4.266721
	-4.058628
	-2.824564
	-0.900186
	1.234557
	3.068781
	4.160829
	4.224613
	3.217930
	1.422359
	-0.706910
	-2.656093
	-3.963600
	-4.304732
	-3.554501
	-1.920036
	0.175719
	2.219957
	3.730129
	4.330597
	3.848032
	2.394231
	0.364164
	-1.736424
	-3.413410
	-4.265433
	-4.062815
	-2.826819
	-0.900830
	1.237778
	3.069103
	4.156319
	4.224291
	3.220507
	1.425580
	-0.709809
	-2.658347
	-3.961990
	-4.300866
	-3.555145
	-1.925190
	0.175075
	2.220923
	3.729807
	4.326087
	3.843199
	2.396808
	0.368996
	-1.739646
	-3.417275
	-4.265755
	-4.058628
	-2.826175
	-0.904051
	1.236812
	3.070070
	4.160185
	4.221392
	3.217608
	1.426224
	-0.706588
	-2.656093
	-3.966499
	-4.302155
	-3.554823
	-1.920358
	0.171531
	2.218669
	3.730451
	4.329631
	3.843844
	2.391654
	0.369318
	-1.734814
	-3.415020
	-4.268976
	-4.059272
	-2.823276
	-0.900186
	1.235201
	3.066204
	4.160829
	4.224935
	3.217286
	1.422037
	-0.705943
	-2.656093
	-3.965533
	-4.303766
	-3.554501
	-1.919714
	0.174108
	2.218669
	3.729807
	4.330597
	3.843844
	2.392943
	0.368029
	-1.734814
	-3.412765
	-4.269298
	-4.059916
	-2.824886
	-0.899863
	1.234557
	3.066526
	4.158896
	4.225257
	3.221474
	1.421392
	-0.708842
	-2.655126
	-3.961345
	-4.302799
	-3.557078
	-1.920680
	0.176685
	2.222856
	3.725619
	4.328664
	3.844166
	2.397452
	0.367385
	-1.739001
	-3.415664
	-4.265433
	-4.059594
	-2.828752
	-0.900830
	1.236167
	3.070070
	4.155997
	4.221069
	3.221152
	1.426224
	-0.707554
	-2.659636
	-3.960057
	-4.301189
	-3.553534
	-1.923902
	0.172820
	2.222856
	3.730129
	4.328342
	3.843844
	2.397452
	0.369318
	-1.734170
	-3.417919
	-4.266721
	-4.058305
	-2.825531
	-0.902763
	1.233590
	3.069748
	4.161151
	4.225902
	3.218575
	1.424936
	-0.705621
	-2.655126
	-3.965855
	-4.304732
	-3.554823
	-1.920358
	0.174430
	2.218346
	3.729485
	4.331886
	3.847387
	2.394875
	0.367385
	-1.735136
	-3.412443
	-4.266721
	-4.060560
	-2.823598
	-0.897931
	1.236812
	3.066848
	4.159218
	4.225257
	3.222118
	1.421392
	-0.705621
	-2.655448
	-3.961668
	-4.303443
	-3.556755
	-1.921647
	0.174430
	2.223178
	3.725297
	4.330919
	3.846421
	2.399063
	0.368029
	-1.735458
	-3.412765
	-4.264788
	-4.058950
	-2.828430
	-0.898897
	1.237134
	3.071358
	4.156964
	4.222358
	3.220507
	1.427835
	-0.706265
	-2.658992
	-3.962956
	-4.300866
	-3.553212
	-1.922935
	0.172175
	2.222534
	3.732384
	4.330275
	3.844166
	2.394875
	0.370606
	-1.733525
	-3.414376
	-4.267687
	-4.059272
	-2.824564
	-0.901474
	1.235523
	3.067493
	4.161473
	4.227190
	3.220507
	1.423647
	-0.704977
	-2.654482
	-3.961023
	-4.302155
	-3.556433
	-1.920680
	0.175719
	2.219313
	3.724652
	4.329631
	3.846743
	2.396486
	0.367385
	-1.737713
	-3.410188
	-4.266077
	-4.061205
	-2.828108
	-0.899541
	1.236167
	3.067171
	4.155997
	4.226224
	3.224373
	1.424614
	-0.708198
	-2.655126
	-3.960701
	-4.302799
	-3.557722
	-1.923257
	0.176041
	2.221246
	3.725619
	4.327054
	3.846421
	2.397775
	0.367707
	-1.736747
	-3.413732
	-4.263822
	-4.059916
	-2.827141
	-0.899863
	1.237778
	3.069103
	4.155997
	4.223324
	3.222440
	1.426869
	-0.709809
	-2.656737
	-3.961668
	-4.300222
	-3.557078
	-1.924224
	0.175397
	2.221568
	3.728840
	4.325121
	3.844810
	2.397775
	0.371895
	-1.736102
	-3.415664
	-4.265433
	-4.057983
	-2.826497
	-0.904695
	1.236490
	3.068781
	4.159218
	4.220425
	3.218897
	1.426224
	-0.705621
	-2.657703
	-3.965855
	-4.301833
	-3.555789
	-1.921325
	0.170565
	2.218346
	3.729807
	4.331564
	3.843199
	2.393909
	0.371895
	-1.734814
	-3.412121
	-4.270264
	-4.061205
	-2.825853
	-0.901796
	1.234879
	3.064916
	4.157286
	4.224613
	3.223729
	1.422037
	-0.708520
	-2.656415
	-3.961345
	-4.302477
	-3.558044
	-1.924224
	0.173142
	2.221890
	3.725941
	4.326087
	3.844166
	2.397775
	0.368674
	-1.738679
	-3.415987
	-4.265110
	-4.057983
	-2.829074
	-0.905017
	1.233912
	3.069425
	4.160185
	4.222036
	3.219863
	1.426546
	-0.704333
	-2.658670
	-3.964245
	-4.302155
	-3.555145
	-1.922613
	0.167666
	2.220601
	3.728518
	4.328020
	3.841911
	2.394875
	0.370284
	-1.735136
	-3.415342
	-4.268654
	-4.056373
	-2.825531
	-0.902440
	1.231980
	3.067171
	4.159218
	4.223324
	3.218252
	1.423325
	-0.704011
	-2.657381
	-3.963922
	-4.304410
	-3.555467
	-1.923579
	0.169920
	2.218669
	3.729162
	4.331564
	3.841911
	2.394875
	0.370606
	-1.733847
	-3.415342
	-4.269620
	-4.059272
	-2.826175
	-0.902440
	1.230369
	3.066526
	4.157608
	4.224613
	3.218897
	1.422359
	-0.705299
	-2.656415
	-3.962634
	-4.307309
	-3.557400
	-1.923257
	0.171531
	2.218669
	3.725297
	4.330597
	3.845777
	2.394875
	0.366419
	-1.735458
	-3.412765
	-4.267043
	-4.063459
	-2.829396
	-0.902118
	1.234879
	3.064271
	4.158574
	4.224291
	3.222440
	1.422681
	-0.707876
	-2.654804
	-3.959735
	-4.302155
	-3.558366
	-1.920680
	0.172175
	2.219313
	3.723364
	4.328664
	3.847065
	2.396808
	0.365452
	-1.736424
	-3.412765
	-4.266077
	-4.060560
	-2.829718
	-0.901796
	1.234557
	3.067493
	4.155675
	4.224613
	3.224695
	1.426546
	-0.707232
	-2.655770
	-3.960057
	-4.302477
	-3.559010
	-1.923579
	0.172820
	2.220279
	3.724330
	4.328020
	3.846743
	2.399063
	0.367063
	-1.737391
	-3.411799
	-4.266721
	-4.061527
	-2.828108
	-0.901474
	1.236167
	3.065882
	4.155353
	4.224613
	3.223084
	1.423647
	-0.708842
	-2.655770
	-3.963600
	-4.303443
	-3.559655
	-1.921969
	0.172820
	2.218669
	3.724008
	4.330597
	3.847387
	2.398097
	0.368674
	-1.735458
	-3.411477
	-4.265110
	-4.062493
	-2.829074
	-0.900186
	1.235845
	3.066526
	4.154386
	4.223002
	3.222440
	1.425580
	-0.708198
	-2.657381
	-3.959091
	-4.302477
	-3.557722
	-1.924868
	0.173142
	2.221568
	3.725619
	4.328987
	3.846099
	2.399385
	0.367707
	-1.735136
	-3.411799
	-4.264144
	-4.061849
	-2.831651
	-0.901474
	1.236167
	3.067815
	4.154064
	4.225902
	3.222762
	1.429446
	-0.706910
	-2.657381
	-3.961023
	-4.301189
	-3.555789
	-1.927445
	0.172820
	2.220279
	3.728196
	4.326732
	3.845777
	2.399707
	0.371251
	-1.736424
	-3.416309
	-4.265433
	-4.059916
	-2.826819
	-0.906628
	1.234879
	3.069425
	4.158252
	4.222680
	3.221474
	1.429124
	-0.703688
	-2.657381
	-3.962634
	-4.300222
	-3.556755
	-1.925834
	0.170565
	2.219957
	3.727230
	4.328020
	3.841911
	2.398741
	0.372217
	-1.735458
	-3.415664
	-4.265755
	-4.057017
	-2.825531
	-0.903407
	1.232946
	3.069748
	4.158574
	4.221714
	3.220829
	1.427835
	-0.703688
	-2.658347
	-3.962956
	-4.301189
	-3.555145
	-1.927445
	0.170243
	2.221890
	3.727230
	4.327054
	3.844488
	2.400996
	0.370928
	-1.735458
	-3.414376
	-4.265433
	-4.060238
	-2.830685
	-0.903729
	1.235201
	3.069425
	4.157286
	4.223002
	3.222762
	1.428479
	-0.705621
	-2.658025
	-3.961990
	-4.302477
	-3.554823
	-1.926801
	0.171209
	2.220601
	3.728840
	4.327054
	3.843199
	2.399063
	0.370606
	-1.734492
	-3.417919
	-4.265110
	-4.059916
	-2.828752
	-0.906306
	1.233590
	3.071036
	4.159218
	4.223324
	3.219219
	1.429446
	-0.703688
	-2.657059
	-3.963278
	-4.300222
	-3.555145
	-1.925190
	0.170243
	2.218669
	3.728840
	4.327054
	3.843522
	2.398741
	0.372539
	-1.734814
	-3.415020
	-4.264466
	-4.059272
	-2.826497
	-0.906628
	1.233268
	3.069425
	4.158252
	4.222680
	3.222440
	1.428157
	-0.704011
	-2.656093
	-3.962634
	-4.300222
	-3.556755
	-1.927445
	0.168310
	2.220923
	3.727552
	4.325765
	3.844166
	2.398097
	0.371573
	-1.739324
	-3.412765
	-4.265110
	-4.060560
	-2.830685
	-0.903407
	1.235201
	3.066526
	4.155997
	4.223647
	3.225017
	1.427835
	-0.707232
	-2.655126
	-3.960701
	-4.302799
	-3.559332
	-1.922613
	0.172820
	2.220279
	3.723364
	4.328987
	3.845777
	2.399707
	0.368674
	-1.733525
	-3.411799
	-4.265110
	-4.062493
	-2.831007
	-0.901152
	1.235201
	3.066204
	4.154064
	4.225579
	3.222440
	1.426224
	-0.708198
	-2.654804
	-3.960379
	-4.301833
	-3.557722
	-1.924546
	0.174108
	2.218669
	3.725297
	4.326410
	3.848676
	2.399385
	0.369640
	-1.736424
	-3.413410
	-4.265433
	-4.062171
	-2.830685
	-0.904051
	1.234557
	3.067493
	4.154386
	4.225257
	3.223407
	1.427513
	-0.707554
	-2.655770
	-3.961023
	-4.300866
	-3.557722
	-1.926156
	0.173142
	2.219957
	3.726907
	4.325765
	3.847387
	2.398419
	0.371573
	-1.738035
	-3.412121
	-4.264144
	-4.060238
	-2.831329
	-0.904695
	1.235201
	3.066848
	4.157608
	4.224613
	3.227272
	1.427513
	-0.706588
	-2.656737
	-3.959735
	-4.301511
	-3.558688
	-1.924868
	0.171209
	2.220279
	3.724008
	4.326410
	3.845454
	2.400030
	0.370606
	-1.736424
	-3.414698
	-4.265110
	-4.059916
	-2.830685
	-0.902763
	1.234557
	3.067493
	4.153420
	4.223969
	3.223407
	1.429446
	-0.706265
	-2.655448
	-3.959413
	-4.302477
	-3.558366
	-1.925834
	0.172820
	2.218991
	3.724975
	4.326732
	3.848032
	2.400996
	0.369318
	-1.734492
	-3.410833
	-4.265433
	-4.062815
	-2.830362
	-0.902440
	1.234557
	3.067493
	4.153098
	4.225902
	3.224051
	1.428479
	-0.707876
	-2.654482
	-3.961345
	-4.300866
	-3.559655
	-1.926479
	0.173464
	2.218024
	3.726585
	4.327054
	3.849320
	2.400352
	0.372861
	-1.736747
	-3.412121
	-4.264144
	-4.061205
	-2.830040
	-0.905340
	1.234557
	3.067493
	4.155675
	4.223002
	3.223407
	1.428479
	-0.705943
	-2.656093
	-3.960701
	-4.300866
	-3.556433
	-1.928089
	0.172498
	2.218991
	3.727230
	4.324799
	3.847065
	2.398741
	0.370928
	-1.735458
	-3.413410
	-4.263500
	-4.058305
	-2.829396
	-0.905662
	1.233590
	3.068781
	4.157286
	4.223324
	3.222118
	1.430734
	-0.703366
	-2.655448
	-3.964567
	-4.301833
	-3.556755
	-1.927123
	0.167666
	2.218669
	3.729807
	4.328664
	3.844488
	2.399063
	0.373183
	-1.733203
	-3.415987
	-4.267365
	-4.059272
	-2.826819
	-0.905017
	1.231980
	3.067171
	4.159218
	4.224935
	3.219863
	1.427835
	-0.703366
	-2.653838
	-3.964889
	-4.303121
	-3.556433
	-1.924546
	0.171531
	2.213192
	3.728196
	4.330597
	3.847065
	2.395520
	0.373828
	-1.730948
	-3.411799
	-4.268976
	-4.062815
	-2.826819
	-0.903729
	1.231335
	3.064271
	4.158574
	4.224291
	3.220507
	1.424614
	-0.701756
	-2.653516
	-3.965211
	-4.303766
	-3.556433
	-1.923579
	0.167343
	2.216091
	3.727230
	4.330597
	3.846421
	2.395520
	0.372217
	-1.732237
	-3.413087
	-4.268976
	-4.061205
	-2.830362
	-0.906306
	1.230047
	3.066204
	4.158896
	4.223324
	3.220507
	1.427191
	-0.700467
	-2.653193
	-3.963278
	-4.303766
	-3.556111
	-1.923579
	0.167988
	2.216091
	3.726585
	4.331242
	3.844166
	2.396486
	0.370928
	-1.731915
	-3.413087
	-4.269298
	-4.060882
	-2.827785
	-0.903085
	1.229081
	3.064916
	4.158574
	4.228479
	3.220185
	1.425902
	-0.702400
	-2.653838
	-3.962312
	-4.304732
	-3.556433
	-1.925512
	0.171853
	2.213837
	3.725619
	4.329953
	3.847709
	2.395520
	0.368674
	-1.732881
	-3.412121
	-4.267687
	-4.063782
	-2.827141
	-0.904695
	1.232302
	3.062016
	4.156964
	4.224613
	3.222762
	1.424614
	-0.704011
	-2.652871
	-3.962634
	-4.306343
	-3.559332
	-1.924868
	0.168632
	2.214159
	3.722397
	4.331564
	3.847709
	2.396486
	0.370928
	-1.730626
	-3.410833
	-4.268332
	-4.063459
	-2.830362
	-0.903407
	1.230691
	3.062661
	4.155353
	4.224935
	3.223729
	1.426224
	-0.703688
	-2.653193
	-3.960701
	-4.305376
	-3.560299
	-1.923902
	0.170565
	2.216736
	3.722397
	4.330597
	3.848676
	2.400674
	0.368674
	-1.733525
	-3.411155
	-4.266721
	-4.064104
	-2.830685
	-0.903085
	1.232624
	3.064916
	4.154386
	4.227190
	3.223407
	1.425902
	-0.706265
	-2.654160
	-3.959413
	-4.304410
	-3.560943
	-1.927123
	0.171531
	2.217058
	3.722720
	4.325765
	3.845777
	2.400030
	0.370606
	-1.735458
	-3.413410
	-4.265110
	-4.062493
	-2.832295
	-0.906950
	1.232624
	3.068781
	4.156964
	4.223324
	3.224373
	1.429768
	-0.704011
	-2.656737
	-3.960057
	-4.302155
	-3.556755
	-1.929700
	0.170243
	2.219313
	3.725619
	4.326087
	3.845454
	2.400996
	0.373505
	-1.732559
	-3.414054
	-4.264788
	-4.060882
	-2.832295
	-0.907272
	1.229725
	3.067493
	4.156319
	4.222036
	3.221474
	1.430090
	-0.702400
	-2.657059
	-3.962634
	-4.303766
	-3.556111
	-1.926801
	0.166699
	2.217380
	3.726585
	4.329953
	3.843199
	2.399707
	0.374150
	-1.730304
	-3.414054
	-4.269298
	-4.060882
	-2.828108
	-0.905984
	1.227470
	3.066526
	4.156319
	4.224935
	3.219219
	1.427513
	-0.701756
	-2.653516
	-3.963278
	-4.305376
	-3.556755
	-1.926479
	0.167988
	2.213837
	3.725619
	4.330919
	3.845454
	2.396808
	0.370284
	-1.731270
	-3.411155
	-4.267687
	-4.064426
	-2.831007
	-0.903407
	1.231980
	3.064271
	4.154064
	4.225902
	3.225339
	1.429124
	-0.703688
	-2.653193
	-3.958446
	-4.302477
	-3.558688
	-1.929700
	0.170243
	2.218346
	3.724330
	4.326732
	3.847387
	2.402929
	0.373828
	-1.733525
	-3.414376
	-4.264788
	-4.061205
	-2.831329
	-0.907594
	1.231013
	3.068781
	4.159541
	4.224613
	3.220507
	1.431701
	-0.702078
	-2.653838
	-3.963278
	-4.304410
	-3.556433
	-1.927123
	0.167666
	2.212548
	3.725941
	4.328342
	3.847065
	2.396486
	0.368996
	-1.730626
	-3.411799
	-4.264788
	-4.063782
	-2.829074
	-0.905017
	1.232624
	3.063949
	4.152454
	4.225257
	3.224373
	1.429446
	-0.705299
	-2.655126
	-3.961668
	-4.301511
	-3.561587
	-1.929378
	0.170243
	2.216736
	3.727230
	4.325765
	3.845454
	2.400996
	0.375438
	-1.734170
	-3.413087
	-4.264466
	-4.060882
	-2.831651
	-0.909527
	1.231658
	3.066526
	4.156319
	4.220425
	3.223729
	1.429768
	-0.700789
	-2.656737
	-3.963278
	-4.303766
	-3.558366
	-1.928411
	0.166055
	2.218669
	3.726907
	4.329953
	3.845132
	2.396486
	0.373505
	-1.730304
	-3.414698
	-4.268010
	-4.062493
	-2.830362
	-0.906628
	1.227470
	3.062983
	4.157930
	4.226546
	3.219863
	1.427513
	-0.703044
	-2.650616
	-3.959413
	-4.306020
	-3.559977
	-1.925190
	0.170565
	2.214803
	3.722720
	4.327698
	3.848998
	2.399063
	0.370928
	-1.732881
	-3.409544
	-4.265755
	-4.063137
	-2.833262
	-0.906950
	1.231980
	3.062983
	4.154064
	4.225579
	3.226306
	1.427513
	-0.704977
	-2.655126
	-3.959735
	-4.302477
	-3.561265
	-1.928089
	0.167666
	2.216736
	3.722720
	4.326732
	3.846099
	2.402284
	0.371895
	-1.734170
	-3.411155
	-4.265755
	-4.060238
	-2.833262
	-0.905017
	1.231335
	3.065560
	4.153098
	4.223002
	3.225339
	1.429768
	-0.704333
	-2.656415
	-3.960701
	-4.302799
	-3.556433
	-1.930022
	0.168310
	2.218346
	3.725619
	4.327054
	3.844488
	2.400674
	0.376082
	-1.730948
	-3.414376
	-4.265433
	-4.061205
	-2.831329
	-0.907272
	1.229403
	3.066526
	4.158252
	4.223002
	3.220507
	1.429768
	-0.701111
	-2.653193
	-3.964245
	-4.304732
	-3.559332
	-1.925190
	0.166055
	2.213837
	3.725619
	4.329953
	3.847709
	2.397452
	0.370606
	-1.731915
	-3.410510
	-4.266721
	-4.064748
	-2.832617
	-0.905340
	1.230369
	3.063949
	4.151809
	4.224613
	3.224373
	1.429124
	-0.704655
	-2.652871
	-3.958446
	-4.300866
	-3.559655
	-1.930988
	0.168954
	2.217058
	3.725941
	4.325443
	3.846421
	2.401962
	0.375760
	-1.733525
	-3.414376
	-4.264788
	-4.062815
	-2.829718
	-0.909849
	1.230691
	3.065560
	4.158896
	4.223324
	3.222440
	1.430734
	-0.701111
	-2.654160
	-3.964245
	-4.302477
	-3.557722
	-1.926156
	0.166055
	2.214159
	3.726907
	4.330275
	3.845454
	2.396486
	0.373828
	-1.729982
	-3.411799
	-4.269298
	-4.060882
	-2.830040
	-0.903729
	1.228436
	3.062983
	4.157286
	4.226224
	3.222118
	1.428479
	-0.701111
	-2.653516
	-3.961990
	-4.304410
	-3.557078
	-1.926801
	0.167343
	2.211259
	3.725297
	4.330275
	3.846743
	2.399385
	0.373505
	-1.728693
	-3.409222
	-4.268010
	-4.065070
	-2.830685
	-0.907917
	1.228758
	3.060728
	4.155031
	4.225902
	3.225662
	1.428157
	-0.704655
	-2.650294
	-3.962312
	-4.304088
	-3.562876
	-1.926479
	0.170243
	2.216414
	3.721753
	4.327376
	3.849642
	2.400352
	0.373828
	-1.735458
	-3.410510
	-4.266721
	-4.062815
	-2.834872
	-0.908561
	1.231658
	3.064916
	4.157608
	4.220747
	3.225339
	1.431056
	-0.701434
	-2.654804
	-3.960701
	-4.302799
	-3.558688
	-1.929700
	0.164122
	2.217702
	3.725297
	4.327376
	3.843199
	2.401318
	0.375116
	-1.730948
	-3.414376
	-4.266721
	-4.059272
	-2.830362
	-0.907917
	1.226826
	3.065560
	4.158574
	4.224291
	3.221796
	1.430412
	-0.699179
	-2.654160
	-3.962634
	-4.303443
	-3.558688
	-1.928733
	0.163156
	2.213192
	3.726907
	4.330919
	3.844810
	2.400352
	0.375438
	-1.729982
	-3.412765
	-4.267365
	-4.061205
	-2.831329
	-0.907917
	1.225215
	3.064916
	4.157930
	4.225257
	3.222118
	1.427513
	-0.700145
	-2.652227
	-3.961668
	-4.306343
	-3.558044
	-1.926801
	0.165411
	2.212226
	3.723042
	4.330597
	3.846743
	2.397452
	0.375116
	-1.729338
	-3.410833
	-4.268654
	-4.063137
	-2.831651
	-0.906306
	1.228114
	3.060728
	4.156641
	4.226224
	3.224695
	1.427191
	-0.700789
	-2.652227
	-3.958768
	-4.306020
	-3.559010
	-1.924546
	0.167988
	2.214481
	3.722075
	4.330597
	3.848032
	2.399385
	0.371251
	-1.730948
	-3.408256
	-4.266399
	-4.063459
	-2.833262
	-0.906950
	1.231013
	3.061694
	4.153420
	4.224935
	3.226950
	1.430412
	-0.703044
	-2.650939
	-3.958768
	-4.301189
	-3.561909
	-1.931955
	0.168632
	2.215447
	3.724975
	4.326087
	3.847387
	2.401962
	0.376405
	-1.733203
	-3.413087
	-4.263500
	-4.061849
	-2.831329
	-0.909205
	1.231013
	3.066848
	4.155997
	4.223969
	3.224373
	1.433633
	-0.700467
	-2.653193
	-3.960701
	-4.301511
	-3.557078
	-1.930988
	0.165733
	2.216091
	3.727552
	4.327054
	3.845454
	2.403895
	0.376405
	-1.729660
	-3.413732
	-4.263178
	-4.058950
	-2.831007
	-0.909849
	1.230369
	3.066204
	4.155031
	4.222680
	3.222440
	1.431701
	-0.701111
	-2.654804
	-3.962634
	-4.303443
	-3.557722
	-1.929700
	0.165089
	2.211904
	3.726263
	4.330597
	3.846743
	2.401962
	0.376082
	-1.728371
	-3.409866
	-4.267043
	-4.063137
	-2.830362
	-0.905017
	1.226181
	3.063627
	4.155675
	4.228157
	3.223729
	1.428479
	-0.698856
	-2.651261
	-3.961345
	-4.306665
	-3.557078
	-1.928411
	0.166699
	2.212226
	3.725297
	4.332208
	3.849642
	2.399063
	0.374472
	-1.728371
	-3.410833
	-4.268332
	-4.063459
	-2.830362
	-0.904695
	1.226826
	3.062016
	4.157286
	4.227190
	3.224373
	1.428801
	-0.700145
	-2.650616
	-3.958446
	-4.306665
	-3.558366
	-1.927123
	0.167343
	2.213192
	3.724330
	4.331242
	3.848354
	2.399707
	0.371895
	-1.728371
	-3.410188
	-4.266721
	-4.064104
	-2.830040
	-0.906306
	1.229725
	3.061694
	4.155031
	4.228157
	3.225339
	1.429446
	-0.701756
	-2.651583
	-3.957480
	-4.303443
	-3.562232
	-1.930022
	0.167988
	2.214481
	3.722720
	4.328342
	3.849642
	2.403895
	0.375438
	-1.731593
	-3.409544
	-4.263178
	-4.062171
	-2.833584
	-0.908883
	1.230691
	3.066204
	4.154709
	4.223647
	3.224695
	1.432345
	-0.699501
	-2.654482
	-3.962312
	-4.302477
	-3.556433
	-1.930022
	0.163478
	2.215125
	3.725619
	4.330597
	3.846099
	2.403573
	0.376405
	-1.729016
	-3.413732
	-4.264788
	-4.061527
	-2.831007
	-0.909527
	1.227148
	3.066848
	4.157930
	4.226224
	3.223084
	1.434278
	-0.698212
	-2.652227
	-3.961668
	-4.302799
	-3.556111
	-1.927123
	0.165089
	2.214481
	3.726907
	4.329631
	3.845454
	2.401640
	0.375760
	-1.726116
	-3.409866
	-4.267043
	-4.062493
	-2.829718
	-0.906628
	1.226826
	3.062016
	4.156641
	4.228157
	3.224695
	1.428801
	-0.699179
	-2.648684
	-3.957802
	-4.305054
	-3.561265
	-1.928411
	0.168632
	2.213514
	3.721109
	4.329309
	3.848032
	2.402607
	0.372861
	-1.729660
	-3.409222
	-4.264144
	-4.065070
	-2.834228
	-0.905984
	1.229081
	3.065238
	4.153742
	4.226224
	3.227916
	1.432345
	-0.702722
	-2.653516
	-3.957158
	-4.302155
	-3.558688
	-1.933243
	0.164766
	2.215769
	3.724975
	4.328987
	3.846099
	2.403251
	0.377371
	-1.728049
	-3.411477
	-4.263500
	-4.060560
	-2.831007
	-0.908883
	1.229081
	3.065882
	4.157930
	4.225257
	3.222440
	1.432989
	-0.695957
	-2.650294
	-3.960701
	-4.303766
	-3.558044
	-1.926479
	0.162512
	2.211259
	3.725941
	4.331242
	3.848998
	2.401640
	0.377693
	-1.727083
	-3.407611
	-4.267687
	-4.061205
	-2.830685
	-0.906950
	1.227792
	3.061372
	4.157608
	4.227834
	3.226950
	1.428157
	-0.698212
	-2.650939
	-3.959413
	-4.305698
	-3.560943
	-1.926801
	0.167988
	2.213837
	3.722075
	4.332208
	3.848998
	2.402284
	0.373505
	-1.728049
	-3.408578
	-4.265755
	-4.064104
	-2.833906
	-0.906306
	1.229725
	3.062016
	4.155353
	4.225902
	3.227916
	1.432023
	-0.700789
	-2.649972
	-3.957480
	-4.304088
	-3.562232
	-1.928733
	0.167021
	2.215447
	3.722075
	4.328342
	3.848354
	2.403573
	0.374794
	-1.731593
	-3.408900
	-4.264466
	-4.060882
	-2.836483
	-0.909527
	1.230047
	3.062338
	4.155031
	4.222358
	3.228561
	1.433311
	-0.700467
	-2.654160
	-3.959413
	-4.300866
	-3.561265
	-1.932921
	0.164766
	2.215447
	3.726907
	4.327054
	3.846421
	2.404217
	0.377049
	-1.731270
	-3.410510
	-4.263822
	-4.059272
	-2.831651
	-0.911782
	1.228114
	3.064593
	4.157608
	4.223969
	3.226628
	1.433955
	-0.696279
	-2.652227
	-3.961023
	-4.302155
	-3.559332
	-1.929378
	0.162834
	2.215125
	3.725297
	4.329631
	3.847065
	2.401962
	0.378982
	-1.728371
	-3.411155
	-4.267043
	-4.061527
	-2.831007
	-0.907917
	1.226503
	3.062016
	4.159541
	4.225902
	3.223729
	1.431056
	-0.697568
	-2.649650
	-3.960379
	-4.304732
	-3.558044
	-1.924868
	0.165733
	2.211904
	3.724008
	4.330919
	3.849320
	2.399385
	0.377049
	-1.727083
	-3.408900
	-4.268976
	-4.063782
	-2.832295
	-0.909527
	1.225215
	3.061050
	4.158896
	4.225902
	3.224373
	1.431056
	-0.695313
	-2.649328
	-3.960057
	-4.304732
	-3.559655
	-1.929056
	0.165411
	2.211904
	3.724330
	4.332208
	3.847709
	2.400352
	0.376405
	-1.726761
	-3.410188
	-4.268010
	-4.063137
	-2.832617
	-0.908883
	1.223926
	3.062661
	4.157286
	4.227834
	3.224051
	1.431701
	-0.697568
	-2.652227
	-3.963278
	-4.306020
	-3.559332
	-1.930022
	0.163478
	2.211904
	3.724008
	4.331242
	3.847387
	2.400030
	0.376405
	-1.726439
	-3.410833
	-4.265755
	-4.060882
	-2.832939
	-0.909527
	1.223604
	3.064593
	4.155997
	4.224291
	3.223407
	1.434600
	-0.698212
	-2.651583
	-3.962312
	-4.302799
	-3.558366
	-1.930666
	0.163478
	2.214481
	3.724975
	4.326732
	3.846421
	2.404539
	0.378015
	-1.729016
	-3.410833
	-4.262856
	-4.060560
	-2.833906
	-0.912426
	1.229081
	3.063627
	4.151165
	4.223969
	3.225984
	1.434600
	-0.699823
	-2.653193
	-3.958124
	-4.303121
	-3.561265
	-1.933887
	0.166055
	2.215125
	3.725619
	4.328020
	3.846421
	2.406794
	0.378982
	-1.729016
	-3.411155
	-4.263822
	-4.062171
	-2.835194
	-0.911138
	1.227792
	3.064271
	4.154064
	4.224291
	3.227272
	1.434600
	-0.699823
	-2.651583
	-3.957158
	-4.302477
	-3.559977
	-1.933887
	0.166699
	2.215447
	3.723686
	4.326410
	3.849964
	2.404217
	0.376405
	-1.729982
	-3.409866
	-4.263822
	-4.064426
	-2.836161
	-0.908883
	1.228436
	3.062016
	4.153420
	4.228157
	3.226628
	1.433311
	-0.702722
	-2.648684
	-3.958124
	-4.303766
	-3.562232
	-1.930344
	0.166699
	2.211259
	3.720787
	4.328987
	3.850609
	2.404539
	0.374150
	-1.727405
	-3.407933
	-4.264788
	-4.065714
	-2.833906
	-0.908561
	1.227792
	3.061050
	4.152454
	4.228801
	3.227916
	1.432345
	-0.700789
	-2.649650
	-3.958768
	-4.305698
	-3.562232
	-1.929700
	0.167021
	2.210937
	3.721431
	4.328987
	3.851253
	2.402607
	0.375760
	-1.727405
	-3.407289
	-4.264144
	-4.066359
	-2.832617
	-0.909205
	1.226503
	3.057829
	4.155997
	4.227512
	3.227272
	1.430090
	-0.698534
	-2.648362
	-3.960701
	-4.306665
	-3.561265
	-1.928411
	0.164766
	2.210615
	3.724330
	4.329631
	3.850931
	2.398741
	0.375438
	-1.727083
	-3.407933
	-4.267365
	-4.064104
	-2.831651
	-0.907917
	1.224893
	3.057829
	4.157286
	4.226546
	3.224373
	1.429446
	-0.696279
	-2.649328
	-3.960701
	-4.303766
	-3.560299
	-1.928733
	0.161223
	2.210615
	3.724975
	4.329953
	3.845454
	2.400352
	0.378982
	-1.728693
	-3.409544
	-4.268332
	-4.061527
	-2.833262
	-0.912104
	1.225215
	3.063305
	4.158574
	4.223969
	3.226950
	1.434600
	-0.695635
	-2.650939
	-3.961023
	-4.302155
	-3.560621
	-1.932277
	0.160257
	2.216091
	3.724330
	4.329953
	3.846421
	2.404862
	0.378337
	-1.728693
	-3.410833
	-4.263822
	-4.060882
	-2.833584
	-0.911460
	1.226826
	3.064271
	4.155675
	4.223002
	3.225662
	1.435244
	-0.696279
	-2.652871
	-3.960057
	-4.303443
	-3.558366
	-1.931955
	0.160901
	2.212548
	3.724008
	4.328020
	3.846421
	2.406794
	0.378659
	-1.726761
	-3.410510
	-4.264144
	-4.060238
	-2.835516
	-0.912104
	1.228114
	3.062983
	4.154386
	4.223969
	3.226950
	1.435244
	-0.697890
	-2.652871
	-3.959735
	-4.302477
	-3.559655
	-1.933887
	0.163478
	2.212870
	3.724975
	4.327698
	3.845454
	2.404539
	0.378982
	-1.728693
	-3.411799
	-4.264466
	-4.063137
	-2.832295
	-0.913071
	1.225859
	3.062983
	4.156319
	4.223002
	3.226306
	1.435566
	-0.696924
	-2.650939
	-3.961023
	-4.301833
	-3.560299
	-1.933243
	0.162189
	2.215125
	3.725619
	4.328664
	3.847065
	2.403895
	0.379304
	-1.728371
	-3.412121
	-4.265110
	-4.060560
	-2.833584
	-0.912104
	1.225859
	3.062661
	4.156641
	4.224291
	3.224695
	1.435566
	-0.696602
	-2.649972
	-3.960379
	-4.302799
	-3.559655
	-1.931633
	0.160579
	2.210293
	3.725941
	4.329631
	3.848354
	2.401962
	0.379304
	-1.726439
	-3.409222
	-4.267687
	-4.063137
	-2.831651
	-0.912104
	1.223282
	3.060084
	4.156319
	4.227190
	3.224695
	1.431701
	-0.696279
	-2.649006
	-3.959735
	-4.305054
	-3.562232
	-1.929056
	0.162834
	2.209327
	3.719498
	4.330919
	3.850609
	2.403573
	0.375116
	-1.727083
	-3.407611
	-4.265110
	-4.065392
	-2.836805
	-0.908883
	1.226826
	3.061694
	4.152131
	4.226546
	3.227272
	1.434278
	-0.700145
	-2.652227
	-3.959091
	-4.304088
	-3.560299
	-1.934532
	0.164122
	2.213514
	3.724008
	4.326410
	3.847065
	2.405506
	0.379304
	-1.726439
	-3.412121
	-4.263822
	-4.062493
	-2.833262
	-0.914037
	1.224571
	3.062661
	4.155031
	4.224613
	3.223729
	1.437177
	-0.695635
	-2.649006
	-3.960701
	-4.301511
	-3.560299
	-1.933243
	0.160257
	2.210293
	3.726585
	4.328987
	3.846743
	2.401962
	0.380270
	-1.727083
	-3.410833
	-4.267365
	-4.063137
	-2.831973
	-0.911460
	1.224249
	3.060406
	4.157930
	4.227190
	3.226628
	1.432345
	-0.696279
	-2.647395
	-3.960057
	-4.305054
	-3.562876
	-1.929700
	0.163800
	2.209327
	3.720787
	4.331242
	3.850931
	2.403251
	0.376405
	-1.727083
	-3.406645
	-4.264466
	-4.065070
	-2.835194
	-0.909527
	1.225859
	3.059761
	4.152776
	4.225579
	3.229205
	1.432345
	-0.699823
	-2.649006
	-3.956836
	-4.302155
	-3.562554
	-1.931955
	0.165089
	2.213192
	3.720787
	4.326732
	3.849964
	2.405184
	0.377371
	-1.728371
	-3.408900
	-4.263500
	-4.064748
	-2.837771
	-0.911782
	1.225537
	3.062016
	4.151165
	4.226868
	3.228561
	1.436533
	-0.699179
	-2.649006
	-3.956514
	-4.302799
	-3.562554
	-1.932277
	0.166055
	2.212548
	3.721753
	4.326410
	3.852219
	2.406472
	0.378659
	-1.729660
	-3.406323
	-4.265110
	-4.063782
	-2.836483
	-0.912748
	1.226503
	3.062016
	4.153742
	4.224613
	3.229527
	1.434278
	-0.696602
	-2.652227
	-3.957480
	-4.302477
	-3.561587
	-1.933887
	0.163478
	2.213514
	3.722720
	4.327376
	3.846421
	2.406472
	0.379304
	-1.728371
	-3.412121
	-4.262211
	-4.063782
	-2.833906
	-0.914037
	1.223282
	3.063305
	4.156641
	4.225579
	3.224051
	1.434922
	-0.696279
	-2.649650
	-3.962634
	-4.304088
	-3.559977
	-1.932277
	0.158968
	2.209971
	3.722075
	4.330275
	3.846743
	2.402284
	0.378659
	-1.724828
	-3.407611
	-4.266399
	-4.064104
	-2.835516
	-0.909849
	1.222638
	3.057829
	4.152776
	4.228479
	3.226628
	1.432667
	-0.700145
	-2.647717
	-3.957480
	-4.304410
	-3.565453
	-1.934532
	0.162512
	2.210293
	3.721109
	4.324799
	3.850931
	2.406794
	0.379626
	-1.729016
	-3.409544
	-4.265110
	-4.063459
	-2.833262
	-0.914681
	1.224893
	3.062016
	4.156964
	4.224935
	3.225984
	1.434278
	-0.693702
	-2.649006
	-3.961345
	-4.303443
	-3.560943
	-1.931310
	0.160257
	2.209005
	3.721753
	4.329631
	3.845777
	2.401962
	0.378982
	-1.724828
	-3.409544
	-4.267687
	-4.066036
	-2.834228
	-0.911460
	1.221672
	3.058473
	4.154064
	4.228479
	3.228561
	1.432989
	-0.698212
	-2.648362
	-3.956514
	-4.305376
	-3.563520
	-1.934532
	0.163800
	2.211904
	3.720143
	4.326410
	3.850287
	2.403895
	0.378337
	-1.729016
	-3.408900
	-4.264144
	-4.065070
	-2.838093
	-0.915970
	1.226181
	3.061372
	4.155031
	4.223647
	3.227916
	1.436855
	-0.696602
	-2.650939
	-3.961668
	-4.304410
	-3.562554
	-1.932921
	0.157680
	2.207394
	3.722720
	4.329953
	3.849642
	2.402284
	0.376727
	-1.726439
	-3.407289
	-4.267365
	-4.065070
	-2.834550
	-0.910494
	1.224571
	3.057506
	4.151809
	4.227834
	3.228239
	1.432345
	-0.698856
	-2.647717
	-3.957158
	-4.304732
	-3.564164
	-1.933565
	0.164444
	2.209971
	3.718854
	4.327376
	3.851575
	2.406794
	0.378659
	-1.728693
	-3.407289
	-4.263178
	-4.065392
	-2.836805
	-0.913071
	1.227470
	3.060406
	4.152454
	4.224291
	3.229205
	1.435566
	-0.699179
	-2.649328
	-3.957158
	-4.302799
	-3.563520
	-1.935820
	0.160579
	2.212226
	3.722075
	4.326410
	3.846421
	2.405828
	0.381881
	-1.726116
	-3.410510
	-4.267043
	-4.061527
	-2.835839
	-0.914681
	1.221349
	3.061372
	4.156964
	4.226546
	3.224695
	1.435566
	-0.693058
	-2.647717
	-3.958768
	-4.304088
	-3.559332
	-1.932277
	0.160257
	2.208682
	3.723364
	4.330597
	3.847709
	2.403251
	0.379304
	-1.723862
	-3.408578
	-4.267043
	-4.063459
	-2.833584
	-0.912748
	1.221349
	3.060728
	4.155675
	4.227512
	3.225662
	1.434922
	-0.693702
	-2.646429
	-3.960057
	-4.305698
	-3.559977
	-1.932599
	0.160579
	2.207716
	3.723042
	4.330275
	3.848676
	2.403573
	0.381559
	-1.724506
	-3.408256
	-4.265110
	-4.064426
	-2.832617
	-0.913071
	1.220383
	3.058795
	4.156319
	4.227190
	3.226306
	1.434600
	-0.694347
	-2.645785
	-3.960379
	-4.305376
	-3.563198
	-1.931310
	0.160257
	2.207072
	3.721109
	4.329953
	3.853186
	2.404217
	0.378982
	-1.724506
	-3.406967
	-4.268010
	-4.066681
	-2.834228
	-0.910816
	1.224571
	3.056862
	4.156319
	4.227834
	3.228883
	1.431701
	-0.695313
	-2.648362
	-3.959091
	-4.307309
	-3.560621
	-1.930666
	0.161223
	2.209005
	3.721431
	4.331886
	3.849642
	2.404217
	0.377049
	-1.724828
	-3.406967
	-4.268010
	-4.066036
	-2.835839
	-0.911138
	1.222316
	3.057506
	4.155031
	4.229123
	3.229205
	1.432989
	-0.694025
	-2.646107
	-3.957158
	-4.307631
	-3.561587
	-1.932599
	0.162189
	2.208682
	3.719176
	4.329953
	3.850287
	2.405506
	0.377049
	-1.723862
	-3.405679
	-4.263178
	-4.067003
	-2.837127
	-0.911460
	1.225215
	3.060406
	4.150843
	4.227834
	3.228883
	1.437177
	-0.699501
	-2.648362
	-3.956836
	-4.303766
	-3.563842
	-1.937431
	0.163156
	2.210937
	3.722397
	4.325765
	3.852542
	2.406794
	0.380592
	-1.728049
	-3.407933
	-4.262856
	-4.062493
	-2.836483
	-0.914359
	1.226503
	3.060728
	4.153420
	4.223647
	3.227916
	1.438787
	-0.695635
	-2.650616
	-3.959413
	-4.302155
	-3.562232
	-1.934210
	0.159612
	2.210615
	3.724652
	4.328664
	3.848032
	2.405506
	0.382847
	-1.724506
	-3.409222
	-4.267687
	-4.063782
	-2.834228
	-0.916292
	1.222960
	3.060406
	4.157286
	4.224935
	3.227594
	1.435888
	-0.693702
	-2.648362
	-3.961990
	-4.300866
	-3.560943
	-1.932599
	0.158968
	2.209971
	3.723686
	4.329309
	3.848032
	2.404217
	0.383814
	-1.723539
	-3.409544
	-4.266721
	-4.063137
	-2.834872
	-0.916292
	1.221672
	3.060406
	4.156319
	4.223324
	3.226950
	1.437177
	-0.693702
	-2.649328
	-3.960057
	-4.301833
	-3.561909
	-1.934854
	0.156391
	2.210937
	3.722075
	4.327054
	3.846421
	2.404539
	0.381237
	-1.724506
	-3.409866
	-4.265433
	-4.062171
	-2.835194
	-0.913715
	1.221027
	3.060406
	4.155353
	4.228479
	3.225662
	1.436855
	-0.692736
	-2.646751
	-3.959091
	-4.305376
	-3.560943
	-1.933887
	0.159935
	2.205461
	3.722075
	4.330275
	3.850609
	2.404539
	0.378015
	-1.723217
	-3.406001
	-4.263822
	-4.066359
	-2.835194
	-0.913071
	1.224249
	3.056540
	4.152131
	4.228157
	3.231460
	1.435888
	-0.696602
	-2.645462
	-3.955869
	-4.302155
	-3.564486
	-1.935820
	0.161545
	2.211259
	3.721109
	4.327698
	3.850609
	2.409694
	0.382203
	-1.725150
	-3.408900
	-4.263500
	-4.062493
	-2.834550
	-0.914359
	1.220383
	3.061694
	4.155675
	4.227512
	3.226628
	1.438465
	-0.693380
	-2.646429
	-3.959413
	-4.306020
	-3.559977
	-1.932277
	0.162189
	2.206427
	3.722075
	4.330919
	3.851897
	2.405506
	0.378659
	-1.722895
	-3.406645
	-4.264788
	-4.067003
	-2.835516
	-0.912426
	1.224249
	3.056862
	4.152454
	4.228157
	3.229527
	1.435566
	-0.696279
	-2.646107
	-3.957158
	-4.302799
	-3.565453
	-1.933565
	0.162512
	2.208360
	3.719820
	4.326410
	3.853186
	2.406794
	0.380270
	-1.725150
	-3.404068
	-4.263500
	-4.066359
	-2.839060
	-0.914037
	1.224571
	3.059761
	4.151809
	4.224291
	3.231782
	1.437177
	-0.695313
	-2.649006
	-3.957158
	-4.303121
	-3.561587
	-1.938075
	0.159935
	2.211582
	3.723364
	4.328342
	3.847709
	2.406794
	0.383491
	-1.724184
	-3.409222
	-4.262211
	-4.063137
	-2.834872
	-0.916292
	1.222316
	3.060728
	4.156641
	4.224291
	3.228883
	1.438787
	-0.693058
	-2.648362
	-3.957158
	-4.302477
	-3.561265
	-1.935498
	0.158968
	2.212226
	3.722397
	4.327698
	3.848676
	2.410016
	0.382847
	-1.723862
	-3.409222
	-4.264466
	-4.062815
	-2.835516
	-0.914681
	1.220383
	3.059439
	4.155675
	4.227190
	3.225339
	1.437821
	-0.693058
	-2.645140
	-3.960379
	-4.303766
	-3.562232
	-1.932921
	0.158324
	2.206105
	3.722075
	4.328987
	3.850287
	2.403573
	0.383491
	-1.721929
	-3.404068
	-4.268654
	-4.064104
	-2.834872
	-0.914037
	1.220705
	3.058151
	4.155997
	4.227512
	3.229527
	1.434922
	-0.691125
	-2.645462
	-3.957158
	-4.305698
	-3.559977
	-1.932921
	0.160901
	2.206427
	3.720787
	4.330919
	3.850931
	2.405828
	0.380592
	-1.722251
	-3.405356
	-4.264144
	-4.067647
	-2.836483
	-0.912426
	1.222638
	3.058473
	4.152454
	4.228801
	3.230171
	1.437821
	-0.697890
	-2.645462
	-3.956514
	-4.303766
	-3.564809
	-1.937431
	0.162512
	2.210293
	3.722075
	4.324799
	3.851575
	2.407761
	0.383491
	-1.725794
	-3.406967
	-4.263500
	-4.063137
	-2.837127
	-0.918225
	1.222316
	3.059439
	4.156319
	4.224935
	3.228883
	1.439432
	-0.691448
	-2.647717
	-3.959091
	-4.301833
	-3.563520
	-1.933887
	0.156713
	2.209649
	3.723042
	4.329631
	3.848676
	2.408083
	0.382525
	-1.722573
	-3.409866
	-4.267365
	-4.062815
	-2.835839
	-0.914681
	1.218772
	3.059761
	4.155353
	4.227834
	3.227272
	1.436855
	-0.691125
	-2.645140
	-3.957480
	-4.304088
	-3.559655
	-1.932921
	0.159290
	2.208038
	3.723042
	4.331564
	3.848354
	2.404862
	0.384136
	-1.721285
	-3.406323
	-4.266399
	-4.063782
	-2.833906
	-0.911782
	1.219739
	3.060084
	4.155031
	4.227834
	3.227916
	1.436210
	-0.691448
	-2.643208
	-3.955547
	-4.306020
	-3.563198
	-1.934532
	0.160257
	2.207072
	3.717243
	4.328987
	3.853186
	2.409049
	0.380270
	-1.722251
	-3.405034
	-4.262533
	-4.065070
	-2.841315
	-0.914359
	1.224893
	3.062016
	4.153742
	4.226868
	3.232426
	1.440398
	-0.693058
	-2.649328
	-3.957480
	-4.303443
	-3.560621
	-1.936464
	0.157358
	2.209327
	3.722075
	4.328664
	3.847387
	2.407116
	0.382847
	-1.720962
	-3.406967
	-4.265755
	-4.064426
	-2.835194
	-0.914359
	1.219739
	3.058473
	4.155031
	4.230412
	3.228561
	1.435566
	-0.694991
	-2.644496
	-3.956514
	-4.304732
	-3.566741
	-1.935498
	0.162512
	2.208682
	3.720143
	4.326732
	3.853186
	2.408405
	0.382525
	-1.727405
	-3.406967
	-4.262856
	-4.064426
	-2.837449
	-0.917580
	1.223282
	3.059439
	4.153742
	4.223969
	3.230171
	1.439110
	-0.691448
	-2.648684
	-3.959735
	-4.301511
	-3.562232
	-1.936464
	0.155425
	2.209005
	3.721109
	4.329953
	3.848676
	2.406150
	0.384136
	-1.722573
	-3.406967
	-4.267687
	-4.064748
	-2.837127
	-0.913393
	1.218450
	3.058151
	4.154709
	4.227834
	3.226950
	1.438143
	-0.693058
	-2.644818
	-3.957802
	-4.306343
	-3.562232
	-1.935176
	0.159290
	2.203850
	3.721109
	4.329631
	3.853186
	2.406150
	0.380592
	-1.720962
	-3.405034
	-4.264144
	-4.067325
	-2.837771
	-0.913393
	1.223282
	3.056862
	4.151165
	4.229123
	3.231138
	1.438143
	-0.696602
	-2.646107
	-3.955547
	-4.301511
	-3.566097
	-1.937753
	0.159935
	2.209971
	3.722075
	4.325765
	3.849642
	2.408083
	0.384458
	-1.722573
	-3.406001
	-4.266399
	-4.062815
	-2.836483
	-0.914681
	1.219094
	3.056862
	4.155031
	4.229767
	3.229527
	1.434922
	-0.693058
	-2.644818
	-3.955225
	-4.306665
	-3.565775
	-1.934854
	0.159612
	2.207072
	3.717243
	4.328664
	3.852864
	2.410338
	0.382847
	-1.725150
	-3.406323
	-4.263178
	-4.064426
	-2.838416
	-0.917258
	1.219417
	3.060406
	4.155353
	4.226546
	3.227916
	1.440076
	-0.691448
	-2.645140
	-3.960057
	-4.304732
	-3.560299
	-1.934532
	0.159612
	2.206427
	3.723364
	4.330919
	3.851253
	2.403573
	0.384136
	-1.720962
	-3.405356
	-4.265433
	-4.065714
	-2.835194
	-0.913393
	1.220383
	3.055251
	4.154064
	4.228801
	3.230816
	1.437821
	-0.694025
	-2.642885
	-3.955225
	-4.303443
	-3.567063
	-1.935820
	0.160257
	2.209327
	3.719820
	4.324799
	3.852542
	2.409371
	0.384136
	-1.725472
	-3.405034
	-4.262533
	-4.063782
	-2.839060
	-0.918225
	1.224249
	3.059761
	4.155353
	4.224291
	3.229849
	1.440076
	-0.690159
	-2.648039
	-3.958446
	-4.302477
	-3.563842
	-1.935176
	0.154458
	2.206427
	3.721109
	4.330597
	3.850931
	2.408083
	0.384780
	-1.720318
	-3.404390
	-4.265755
	-4.063782
	-2.836805
	-0.914037
	1.219417
	3.057506
	4.155031
	4.230089
	3.230171
	1.435566
	-0.691770
	-2.643530
	-3.953614
	-4.304410
	-3.564486
	-1.934854
	0.160257
	2.208038
	3.717243
	4.330275
	3.853830
	2.411626
	0.381559
	-1.724828
	-3.404712
	-4.263178
	-4.065392
	-2.840993
	-0.916614
	1.221672
	3.060728
	4.151165
	4.225257
	3.230171
	1.441687
	-0.693058
	-2.647073
	-3.957802
	-4.301833
	-3.560943
	-1.936787
	0.157358
	2.208360
	3.723364
	4.328342
	3.848676
	2.405828
	0.386391
	-1.720640
	-3.405034
	-4.266721
	-4.066036
	-2.835516
	-0.915648
	1.219739
	3.054607
	4.155353
	4.228479
	3.231782
	1.436210
	-0.691770
	-2.642885
	-3.956836
	-4.305376
	-3.566097
	-1.933243
	0.159290
	2.208682
	3.717565
	4.326732
	3.852542
	2.408405
