LabVIEW Measurement	
Writer_Version	2
Reader_Version	2
Separator	Tab
Decimal_Separator	.
Multi_Headings	No
X_Columns	No
Time_Pref	Absolute
Operator	orzr
Date	2022/04/28
Time	13:25:08.3522855499427522033
***End_of_Header***	
	
Channels	1	
Samples	20000	
Date	2022/04/28	
Time	13:25:08.3522855499427522033	
Y_Unit_Label	Volts	
X_Dimension	Time	
X0	0.0000000000000000E+0	
Delta_X	0.001000	
***End_of_Header***		
X_Value	Voltage	Comment
	0.211475
	0.199234
	0.231447
	0.251741
	0.260438
	0.265270
	0.264948
	0.266237
	0.263015
	0.266237
	0.259472
	0.259794
	0.242721
	0.030439
	-0.073286
	-0.113552
	-0.127725
	-0.138034
	-0.136745
	-0.164126
	-0.194728
	-0.236282
	-0.222431
	-0.206647
	-0.202781
	-0.195694
	-0.199560
	-0.196016
	-0.198271
	-0.227907
	-0.243691
	-0.253033
	-0.252711
	-0.257543
	-0.252389
	-0.255288
	-0.251422
	-0.249167
	-0.249490
	-0.272361
	-0.305862
	-0.306506
	-0.284601
	-0.257221
	-0.250456
	-0.243047
	-0.241436
	-0.240148
	-0.239181
	-0.241758
	-0.238859
	-0.240148
	-0.239826
	-0.235960
	-0.238859
	-0.237249
	-0.239181
	-0.233705
	-0.238215
	-0.258187
	-0.287178
	-0.293943
	-0.262697
	-0.176045
	-0.130947
	-0.118706
	-0.109686
	-0.106787
	-0.103888
	-0.103244
	-0.105821
	-0.104854
	-0.111619
	-0.139322
	-0.156717
	-0.162515
	-0.162515
	-0.165092
	-0.163159
	-0.189896
	-0.216310
	-0.225974
	-0.199238
	-0.208579
	-0.216633
	-0.218243
	-0.221787
	-0.217599
	-0.219210
	-0.215988
	-0.214378
	-0.218887
	-0.218243
	-0.220498
	-0.216310
	-0.217599
	-0.214700
	-0.211156
	-0.216310
	-0.234350
	-0.267207
	-0.271716
	-0.244658
	-0.223719
	-0.211801
	-0.211801
	-0.204714
	-0.207613
	-0.205680
	-0.202459
	-0.206002
	-0.204714
	-0.203425
	-0.132557
	-0.102599
	-0.085527
	-0.080051
	-0.080051
	-0.076507
	-0.103566
	-0.133524
	-0.176367
	-0.162837
	-0.148019
	-0.140611
	-0.134812
	-0.137067
	-0.131591
	-0.139966
	-0.167669
	-0.185386
	-0.190218
	-0.196983
	-0.196661
	-0.193439
	-0.196339
	-0.190540
	-0.192795
	-0.190862
	-0.214700
	-0.243369
	-0.249812
	-0.225008
	-0.198916
	-0.195050
	-0.185386
	-0.185386
	-0.183453
	-0.183131
	-0.184098
	-0.182809
	-0.186675
	-0.183131
	-0.184420
	-0.180876
	-0.179910
	-0.181843
	-0.178622
	-0.181521
	-0.202137
	-0.232739
	-0.239504
	-0.200204
	-0.051381
	0.024319
	0.048156
	0.063618
	0.067484
	0.078114
	0.159290
	0.195691
	0.212441
	0.212119
	0.217918
	0.218562
	0.254318
	0.272357
	0.279444
	0.280088
	0.249808
	0.223394
	0.244010
	0.289108
	0.318744
	0.327763
	0.333884
	0.331307
	0.335172
	0.332273
	0.332595
	0.333239
	0.326797
	0.327119
	0.327119
	0.324864
	0.323576
	0.325186
	0.326475
	0.318744
	0.297161
	0.259150
	0.253030
	0.281055
	0.303926
	0.311979
	0.312301
	0.316811
	0.311979
	0.317455
	0.317133
	0.311979
	0.310368
	0.288141
	0.078436
	-0.027866
	-0.064266
	-0.078118
	-0.087782
	-0.088748
	-0.116129
	-0.144154
	-0.155751
	-0.124182
	-0.102277
	-0.094868
	-0.086815
	-0.089070
	-0.086493
	-0.091969
	-0.120639
	-0.138356
	-0.147697
	-0.148019
	-0.151885
	-0.148664
	-0.147375
	-0.147375
	-0.145120
	-0.148342
	-0.167347
	-0.203425
	-0.205680
	-0.179266
	-0.158005
	-0.145442
	-0.144798
	-0.140933
	-0.141899
	-0.139322
	-0.140288
	-0.140933
	-0.137711
	-0.143832
	-0.139644
	-0.141255
	-0.138356
	-0.137389
	-0.136745
	-0.136101
	-0.162837
	-0.188930
	-0.200204
	-0.166703
	-0.110975
	-0.086815
	-0.075541
	-0.074252
	-0.069742
	-0.072642
	-0.067488
	-0.069420
	-0.070709
	-0.073930
	-0.109042
	-0.121605
	-0.129014
	-0.126759
	-0.131591
	-0.129336
	-0.152207
	-0.185386
	-0.190218
	-0.168636
	-0.174434
	-0.184098
	-0.183453
	-0.184098
	-0.186030
	-0.183453
	-0.186030
	-0.183776
	-0.187319
	-0.184742
	-0.185708
	-0.186030
	-0.182165
	-0.185386
	-0.180232
	-0.181843
	-0.202781
	-0.233061
	-0.239504
	-0.211156
	-0.192473
	-0.179910
	-0.179266
	-0.174434
	-0.172179
	-0.175078
	-0.171857
	-0.175722
	-0.172823
	-0.164448
	-0.029799
	0.029795
	0.054921
	0.068772
	0.069739
	0.080369
	0.136419
	0.144472
	0.150593
	0.185060
	0.211797
	0.216307
	0.224038
	0.225649
	0.260761
	0.274612
	0.280088
	0.282665
	0.278800
	0.282343
	0.280733
	0.283632
	0.315522
	0.327441
	0.335494
	0.332917
	0.312301
	0.276545
	0.268170
	0.300704
	0.318099
	0.328085
	0.329052
	0.330662
	0.329052
	0.325508
	0.330985
	0.324864
	0.324864
	0.321965
	0.320354
	0.321321
	0.318422
	0.322287
	0.320032
	0.319710
	0.295228
	0.256895
	0.251419
	0.255929
	0.071994
	-0.024000
	-0.057502
	-0.072642
	-0.080051
	-0.082305
	-0.119028
	-0.134490
	-0.140933
	-0.145765
	-0.144476
	-0.150274
	-0.177655
	-0.193762
	-0.197949
	-0.201493
	-0.225974
	-0.262697
	-0.335820
	-0.335820
	-0.329055
	-0.323257
	-0.320358
	-0.321968
	-0.316814
	-0.320680
	-0.314881
	-0.318103
	-0.316814
	-0.316814
	-0.319713
	-0.311338
	-0.312626
	-0.307795
	-0.311338
	-0.307150
	-0.330021
	-0.362878
	-0.364489
	-0.341618
	-0.316814
	-0.307472
	-0.303285
	-0.299741
	-0.301996
	-0.296520
	-0.296520
	-0.296198
	-0.297164
	-0.280092
	-0.081983
	0.007246
	0.048800
	0.060397
	0.069739
	0.072960
	0.048156
	0.018198
	0.007890
	0.039459
	0.056532
	0.067806
	0.072960
	0.080047
	0.163478
	0.197946
	0.217273
	0.218562
	0.222105
	0.220817
	0.218562
	0.220495
	0.219206
	0.222105
	0.218562
	0.220172
	0.196335
	0.159935
	0.156713
	0.179906
	0.205677
	0.210186
	0.216951
	0.216307
	0.213730
	0.215663
	0.212764
	0.213408
	0.210509
	0.209864
	0.209220
	0.206321
	0.210186
	0.205677
	0.211475
	0.205999
	0.184094
	0.148660
	0.140929
	0.160901
	0.099052
	0.072638
	0.058142
	0.054599
	0.050733
	0.052666
	0.052988
	0.049767
	0.051055
	0.053310
	0.140285
	0.176685
	0.193436
	0.197301
	0.199234
	0.201167
	0.173464
	0.143184
	0.134809
	0.169276
	0.222105
	0.246265
	0.256895
	0.255284
	0.259794
	0.256251
	0.261405
	0.255929
	0.256251
	0.252707
	0.250452
	0.253030
	0.249164
	0.252063
	0.249486
	0.251419
	0.225649
	0.190859
	0.186349
	0.209542
	0.235957
	0.244010
	0.246265
	0.246265
	0.245621
	0.245621
	0.242077
	0.244010
	0.239822
	0.219850
	0.039781
	-0.047838
	-0.113552
	-0.148342
	-0.186030
	-0.211479
	-0.237893
	-0.276870
	-0.349349
	-0.357080
	-0.381562
	-0.393802
	-0.435035
	-0.447598
	-0.455651
	-0.435679
	-0.274615
	-0.170890
	0.103562
	0.248198
	0.531993
	0.678239
	0.923057
	1.052875
	1.263871
	1.375328
	1.573116
	1.667500
	1.918441
	2.099157
	2.360407
	2.501502
	2.704446
	2.819770
	3.047520
	3.165100
	3.364502
	3.474351
	3.730773
	3.812918
	3.636064
	3.519128
	3.278814
	3.143517
	2.893539
	2.757921
	2.507944
	2.339791
	2.058891
	1.937125
	1.719364
	1.586323
	1.349879
	1.212652
	1.006489
	0.877315
	0.608981
	0.464346
	0.247231
	0.120313
	-0.163159
	-0.308439
	-0.522653
	-0.619935
	-0.656980
	-0.674053
	-0.666000
	-0.680495
	-0.646028
	-0.595132
	-0.499138
	-0.455329
	-0.441477
	-0.426982
	-0.394447
	-0.370609
	-0.330343
	-0.303285
	-0.232095
	-0.202781
	-0.184742
	-0.182487
	-0.176045
	-0.174756
	-0.171857
	-0.172179
	-0.191507
	-0.223719
	-0.235960
	-0.203103
	-0.183776
	-0.171857
	-0.168636
	-0.167669
	-0.165414
	-0.166381
	-0.161871
	-0.167669
	-0.164448
	-0.168313
	-0.165092
	-0.165414
	-0.162515
	-0.158328
	-0.162193
	-0.159616
	-0.185064
	-0.213733
	-0.224041
	-0.193117
	-0.169602
	-0.164770
	-0.155428
	-0.147697
	-0.063300
	-0.028832
	-0.008216
	-0.003062
	-0.002740
	-0.002740
	-0.006283
	-0.002740
	-0.004028
	0.000159
	-0.000807
	-0.003706
	-0.024967
	-0.060401
	-0.064588
	-0.037530
	-0.012082
	-0.004351
	-0.001129
	0.004669
	0.002092
	0.001448
	0.002414
	0.000159
	0.000159
	-0.004351
	0.000481
	-0.002418
	-0.001129
	0.002092
	-0.001129
	0.001126
	-0.026255
	-0.053314
	-0.063622
	-0.047194
	-0.101955
	-0.133846
	-0.141577
	-0.148019
	-0.147053
	-0.149952
	-0.148019
	-0.146409
	-0.152529
	-0.139966
	-0.060401
	-0.020779
	-0.006928
	0.000481
	0.006924
	0.003058
	-0.018524
	-0.053314
	-0.056857
	-0.027866
	0.030117
	0.054921
	0.062330
	0.067484
	0.067162
	0.070383
	0.069094
	0.070705
	0.070061
	0.066840
	0.069417
	0.066517
	0.070705
	0.067162
	0.070383
	0.068772
	0.040103
	0.010467
	-0.000163
	0.031728
	0.052344
	0.063618
	0.067806
	0.066195
	0.070061
	0.066195
	0.068450
	0.067806
	0.063618
	0.040103
	-0.142221
	-0.219210
	-0.252067
	-0.262697
	-0.266884
	-0.270106
	-0.292332
	-0.331954
	-0.367066
	-0.357402
	-0.338719
	-0.328089
	-0.328089
	-0.325512
	-0.326156
	-0.326478
	-0.358046
	-0.372864
	-0.377052
	-0.384461
	-0.379307
	-0.382528
	-0.376085
	-0.376085
	-0.375763
	-0.372864
	-0.399923
	-0.424405
	-0.432136
	-0.404755
	-0.381884
	-0.372864
	-0.363523
	-0.366422
	-0.360301
	-0.360301
	-0.360946
	-0.359335
	-0.360946
	-0.358368
	-0.359013
	-0.359013
	-0.353859
	-0.355791
	-0.351282
	-0.352570
	-0.373831
	-0.402500
	-0.411519
	-0.361590
	-0.212767
	-0.142865
	-0.114196
	-0.107754
	-0.099700
	-0.088426
	-0.002740
	0.031083
	0.046546
	0.053632
	0.052022
	0.058142
	0.090999
	0.108072
	0.113870
	0.114192
	0.095187
	0.061363
	0.088744
	0.128688
	0.160257
	0.170243
	0.174430
	0.180551
	0.175075
	0.176685
	0.177652
	0.174752
	0.173464
	0.168310
	0.171531
	0.166377
	0.171531
	0.171531
	0.172498
	0.170565
	0.143506
	0.111937
	0.099697
	0.131587
	0.152848
	0.163156
	0.168310
	0.166055
	0.169920
	0.164766
	0.170243
	0.166699
	0.162512
	0.132232
	-0.080373
	-0.173468
	-0.212767
	-0.223075
	-0.228551
	-0.233383
	-0.255932
	-0.289433
	-0.293299
	-0.274293
	-0.279769
	-0.285890
	-0.288145
	-0.287178
	-0.289433
	-0.285890
	-0.287501
	-0.284924
	-0.285568
	-0.294909
	-0.321324
	-0.334853
	-0.337430
	-0.337752
	-0.340007
	-0.338397
	-0.365777
	-0.390581
	-0.399923
	-0.371254
	-0.345806
	-0.339685
	-0.331954
	-0.332920
	-0.327444
	-0.329055
	-0.327766
	-0.324223
	-0.329377
	-0.326478
	-0.327766
	-0.325189
	-0.323901
	-0.323901
	-0.318747
	-0.323579
	-0.341618
	-0.371254
	-0.378662
	-0.339363
	-0.254644
	-0.213411
	-0.199238
	-0.190540
	-0.188285
	-0.189896
	-0.185386
	-0.189896
	-0.186030
	-0.189574
	-0.185386
	-0.187319
	-0.187963
	-0.181843
	-0.184098
	-0.187319
	-0.242403
	-0.288145
	-0.300064
	-0.277837
	-0.252067
	-0.247235
	-0.239181
	-0.237571
	-0.237893
	-0.235638
	-0.236927
	-0.234672
	-0.238215
	-0.233705
	-0.235316
	-0.236282
	-0.231450
	-0.231773
	-0.227585
	-0.229840
	-0.252067
	-0.282024
	-0.292010
	-0.260120
	-0.241436
	-0.229840
	-0.224041
	-0.224364
	-0.220820
	-0.223719
	-0.217277
	-0.222109
	-0.218565
	-0.205036
	-0.108720
	-0.062011
	-0.046871
	-0.036241
	-0.035597
	-0.020457
	0.036237
	0.038492
	0.047512
	0.076181
	0.104851
	0.113870
	0.118702
	0.125789
	0.158002
	0.173464
	0.176041
	0.179906
	0.180873
	0.176363
	0.180873
	0.182161
	0.218884
	0.229192
	0.234990
	0.237567
	0.208576
	0.177652
	0.167021
	0.196979
	0.219850
	0.228226
	0.232735
	0.231125
	0.234668
	0.231447
	0.231769
	0.229836
	0.230158
	0.226293
	0.225971
	0.229192
	0.224682
	0.227581
	0.226293
	0.225971
	0.199234
	0.161867
	0.157035
	0.147372
	-0.033986
	-0.118706
	-0.154140
	-0.165736
	-0.172823
	-0.177655
	-0.213411
	-0.226619
	-0.233383
	-0.239826
	-0.236927
	-0.242725
	-0.270106
	-0.287823
	-0.288789
	-0.292655
	-0.316814
	-0.355469
	-0.427304
	-0.427304
	-0.419250
	-0.409909
	-0.408620
	-0.408942
	-0.403144
	-0.407976
	-0.403144
	-0.403466
	-0.401211
	-0.402822
	-0.402822
	-0.398634
	-0.400245
	-0.394769
	-0.394125
	-0.394125
	-0.414096
	-0.445987
	-0.450175
	-0.425693
	-0.399279
	-0.389937
	-0.386716
	-0.382206
	-0.383172
	-0.380595
	-0.381884
	-0.377374
	-0.379307
	-0.359335
	-0.228229
	-0.172179
	-0.145120
	-0.136745
	-0.127403
	-0.128692
	-0.153818
	-0.184742
	-0.227585
	-0.213089
	-0.196339
	-0.188285
	-0.184742
	-0.185064
	-0.180876
	-0.190540
	-0.216955
	-0.231128
	-0.238537
	-0.240148
	-0.241114
	-0.238859
	-0.238537
	-0.239504
	-0.234994
	-0.240470
	-0.258509
	-0.292332
	-0.296842
	-0.270428
	-0.248201
	-0.236604
	-0.236604
	-0.230162
	-0.230484
	-0.231128
	-0.226619
	-0.229518
	-0.228229
	-0.233383
	-0.227907
	-0.225974
	-0.229196
	-0.224041
	-0.225330
	-0.224686
	-0.249167
	-0.274938
	-0.283957
	-0.235316
	-0.081661
	-0.020135
	0.009823
	0.016910
	0.026252
	0.039137
	0.121923
	0.155747
	0.167666
	0.173786
	0.173786
	0.182806
	0.213730
	0.227904
	0.237567
	0.234024
	0.213730
	0.184738
	0.209542
	0.248842
	0.275578
	0.289430
	0.291041
	0.293940
	0.295550
	0.291685
	0.294262
	0.288141
	0.290718
	0.283954
	0.285887
	0.286209
	0.283632
	0.285564
	0.282987
	0.283310
	0.258184
	0.223394
	0.217273
	0.240467
	0.266881
	0.275256
	0.275256
	0.277511
	0.274290
	0.277189
	0.274612
	0.275256
	0.274934
	0.229514
	0.027218
	-0.068454
	-0.101633
	-0.116773
	-0.122249
	-0.124504
	-0.151885
	-0.179266
	-0.187963
	-0.162837
	-0.137389
	-0.131591
	-0.123538
	-0.125793
	-0.120317
	-0.126437
	-0.160905
	-0.171857
	-0.183131
	-0.183453
	-0.183776
	-0.185386
	-0.182487
	-0.183776
	-0.178622
	-0.181843
	-0.203103
	-0.232095
	-0.243047
	-0.213089
	-0.191507
	-0.180232
	-0.175722
	-0.176045
	-0.171857
	-0.175722
	-0.171857
	-0.173790
	-0.173790
	-0.174112
	-0.173790
	-0.172179
	-0.175400
	-0.169280
	-0.169280
	-0.169602
	-0.192473
	-0.222753
	-0.228873
	-0.199882
	-0.137711
	-0.120317
	-0.107754
	-0.104210
	-0.103566
	-0.101633
	-0.102277
	-0.100022
	-0.104210
	-0.109364
	-0.138034
	-0.157039
	-0.157683
	-0.162193
	-0.158328
	-0.161227
	-0.181521
	-0.213089
	-0.224041
	-0.197305
	-0.208902
	-0.212123
	-0.213733
	-0.214700
	-0.214378
	-0.217921
	-0.211801
	-0.217277
	-0.213733
	-0.216310
	-0.214056
	-0.211156
	-0.214700
	-0.208257
	-0.210834
	-0.208257
	-0.229840
	-0.259798
	-0.267207
	-0.243047
	-0.216633
	-0.212123
	-0.204392
	-0.202137
	-0.199238
	-0.200526
	-0.200848
	-0.196661
	-0.201815
	-0.175722
	-0.046227
	0.008212
	0.032694
	0.039137
	0.047512
	0.058464
	0.118058
	0.118702
	0.125145
	0.158324
	0.182483
	0.193114
	0.194402
	0.208254
	0.236279
	0.251419
	0.257217
	0.256895
	0.256895
	0.252385
	0.257861
	0.260438
	0.293940
	0.307147
	0.310046
	0.311013
	0.284920
	0.253674
	0.242399
	0.272035
	0.295873
	0.300704
	0.306825
	0.304570
	0.308113
	0.303926
	0.305214
	0.305859
	0.298772
	0.298450
	0.297483
	0.298127
	0.297483
	0.298772
	0.300382
	0.291685
	0.271391
	0.234990
	0.228226
	0.211797
	0.031083
	-0.051059
	-0.085205
	-0.094868
	-0.102277
	-0.109686
	-0.142865
	-0.158005
	-0.164448
	-0.173145
	-0.166381
	-0.175400
	-0.205358
	-0.216633
	-0.223719
	-0.225008
	-0.248845
	-0.288467
	-0.361912
	-0.360301
	-0.349027
	-0.348060
	-0.342262
	-0.340652
	-0.338074
	-0.338719
	-0.338719
	-0.335820
	-0.339685
	-0.336786
	-0.337752
	-0.337430
	-0.333565
	-0.334853
	-0.330021
	-0.333243
	-0.350315
	-0.379307
	-0.389293
	-0.357402
	-0.341296
	-0.327766
	-0.321002
	-0.321968
	-0.316492
	-0.319713
	-0.315526
	-0.318103
	-0.318103
	-0.278159
	-0.091647
	-0.003384
	0.030439
	0.046868
	0.052344
	0.049767
	0.031406
	-0.004028
	-0.008538
	0.015943
	0.040103
	0.050411
	0.049767
	0.070383
	0.148338
	0.183772
	0.198590
	0.201167
	0.204710
	0.198912
	0.204388
	0.201167
	0.201489
	0.204066
	0.199878
	0.202455
	0.175719
	0.145439
	0.135775
	0.161223
	0.186027
	0.190537
	0.198912
	0.197301
	0.197301
	0.196335
	0.196013
	0.196979
	0.192792
	0.193758
	0.193114
	0.193758
	0.196335
	0.191825
	0.195691
	0.189892
	0.167666
	0.132554
	0.124500
	0.135131
	0.078114
	0.055243
	0.041714
	0.041392
	0.038492
	0.033016
	0.036237
	0.032694
	0.033338
	0.044935
	0.127077
	0.160901
	0.172820
	0.181839
	0.181839
	0.184738
	0.158646
	0.126433
	0.120635
	0.149949
	0.209220
	0.228870
	0.237889
	0.243688
	0.241433
	0.243366
	0.243044
	0.242721
	0.239500
	0.232091
	0.237567
	0.232413
	0.234990
	0.237567
	0.237245
	0.235635
	0.205999
	0.176685
	0.167666
	0.194724
	0.220495
	0.223716
	0.231125
	0.229192
	0.229192
	0.229836
	0.229192
	0.228226
	0.222427
	0.200201
	0.089389
	0.038814
	0.022708
	0.010789
	0.011434
	0.006924
	-0.016269
	-0.049126
	-0.056535
	-0.008538
	0.089066
	0.136419
	0.150593
	0.157035
	0.162512
	0.159290
	0.165411
	0.158968
	0.160901
	0.161867
	0.195369
	0.210186
	0.213086
	0.217918
	0.217273
	0.218240
	0.190215
	0.159935
	0.153814
	0.176685
	0.203744
	0.207932
	0.217273
	0.215341
	0.214696
	0.213408
	0.211797
	0.214696
	0.211475
	0.205677
	0.210186
	0.204388
	0.207932
	0.207609
	0.207609
	0.206965
	0.177007
	0.149949
	0.138674
	0.128688
	-0.019491
	-0.090359
	-0.115162
	-0.129014
	-0.128370
	-0.139644
	-0.170890
	-0.183776
	-0.194406
	-0.194728
	-0.194084
	-0.203747
	-0.230806
	-0.243691
	-0.246268
	-0.252711
	-0.272361
	-0.317458
	-0.387682
	-0.382850
	-0.376408
	-0.368999
	-0.365777
	-0.368032
	-0.362556
	-0.365777
	-0.359335
	-0.361590
	-0.360946
	-0.359013
	-0.361590
	-0.358691
	-0.358368
	-0.356758
	-0.351604
	-0.354825
	-0.375119
	-0.406043
	-0.407332
	-0.383172
	-0.360301
	-0.349349
	-0.349993
	-0.344517
	-0.343873
	-0.340652
	-0.339685
	-0.340007
	-0.339041
	-0.300708
	-0.107431
	-0.028510
	0.008212
	0.022386
	0.028184
	0.030439
	0.003380
	-0.023678
	-0.033986
	-0.002418
	0.019809
	0.028506
	0.034305
	0.050733
	0.131909
	0.160579
	0.179584
	0.181517
	0.181517
	0.182483
	0.179584
	0.182483
	0.181517
	0.182806
	0.183450
	0.177652
	0.157035
	0.119991
	0.114837
	0.144472
	0.164122
	0.174430
	0.174752
	0.178618
	0.177007
	0.176363
	0.179262
	0.172175
	0.174752
	0.171531
	0.172498
	0.171531
	0.169920
	0.172820
	0.169598
	0.172820
	0.144150
	0.111615
	0.106461
	0.113548
	0.060719
	0.032050
	0.024963
	0.018520
	0.015943
	0.036560
	0.110649
	0.146727
	0.160901
	0.162189
	0.164766
	0.163156
	0.165089
	0.169920
	0.205677
	0.216629
	0.197301
	0.169598
	0.158002
	0.189248
	0.208254
	0.227904
	0.259150
	0.273646
	0.281055
	0.278478
	0.282665
	0.277189
	0.280088
	0.275256
	0.277189
	0.275901
	0.273324
	0.277511
	0.273324
	0.273646
	0.249164
	0.214696
	0.207287
	0.231447
	0.258506
	0.262371
	0.269136
	0.267847
	0.266881
	0.269458
	0.266559
	0.266559
	0.262049
	0.213086
	0.010467
	-0.080695
	-0.111619
	-0.129980
	-0.131591
	-0.135456
	-0.158650
	-0.190862
	-0.198593
	-0.168313
	-0.148664
	-0.136423
	-0.132557
	-0.134490
	-0.129336
	-0.140288
	-0.167991
	-0.184742
	-0.187963
	-0.191185
	-0.196016
	-0.187963
	-0.193117
	-0.190540
	-0.186997
	-0.189252
	-0.211479
	-0.244980
	-0.246590
	-0.221787
	-0.198593
	-0.186675
	-0.187319
	-0.182487
	-0.180554
	-0.181199
	-0.178944
	-0.179588
	-0.176689
	-0.180876
	-0.178944
	-0.177333
	-0.182487
	-0.176367
	-0.177011
	-0.175722
	-0.201815
	-0.229518
	-0.235316
	-0.187963
	-0.066843
	-0.022068
	0.001770
	0.009823
	0.012400
	0.032372
	0.109038
	0.145761
	0.153170
	0.160901
	0.163156
	0.169920
	0.205355
	0.216307
	0.223394
	0.220817
	0.200201
	0.173464
	0.193436
	0.238212
	0.260761
	0.274290
	0.276545
	0.280410
	0.280733
	0.277511
	0.281377
	0.274612
	0.276545
	0.272035
	0.270747
	0.272035
	0.270424
	0.271713
	0.270102
	0.274290
	0.243688
	0.209864
	0.205032
	0.227904
	0.253674
	0.259472
	0.264948
	0.264304
	0.265915
	0.265592
	0.261083
	0.261727
	0.259150
	0.205999
	0.005313
	-0.081661
	-0.115162
	-0.133202
	-0.132235
	-0.140611
	-0.160582
	-0.200526
	-0.237893
	-0.225008
	-0.208902
	-0.199560
	-0.201815
	-0.196339
	-0.197627
	-0.201815
	-0.232739
	-0.245946
	-0.250456
	-0.257865
	-0.253355
	-0.258509
	-0.253033
	-0.250778
	-0.250778
	-0.247879
	-0.271716
	-0.299097
	-0.311338
	-0.280414
	-0.258187
	-0.250778
	-0.240470
	-0.245302
	-0.239826
	-0.243369
	-0.236927
	-0.239504
	-0.240792
	-0.239826
	-0.242081
	-0.237893
	-0.239826
	-0.235316
	-0.235638
	-0.232739
	-0.255610
	-0.288145
	-0.289755
	-0.253355
	-0.163482
	-0.129980
	-0.113230
	-0.109042
	-0.106465
	-0.102922
	-0.106143
	-0.102599
	-0.103566
	-0.113874
	-0.143510
	-0.158328
	-0.162193
	-0.164770
	-0.159294
	-0.163482
	-0.185708
	-0.214378
	-0.225652
	-0.204714
	-0.214378
	-0.215666
	-0.218887
	-0.216955
	-0.214378
	-0.218887
	-0.214056
	-0.219210
	-0.216633
	-0.218565
	-0.216633
	-0.215344
	-0.215344
	-0.211156
	-0.215022
	-0.211156
	-0.234027
	-0.265274
	-0.271072
	-0.244980
	-0.218565
	-0.214056
	-0.205358
	-0.208257
	-0.203747
	-0.201170
	-0.200848
	-0.202137
	-0.203103
	-0.185386
	-0.126759
	-0.103888
	-0.126437
	-0.142221
	-0.174434
	-0.190862
	-0.215988
	-0.270106
	-0.334209
	-0.348383
	-0.362878
	-0.379629
	-0.415385
	-0.426982
	-0.434068
	-0.391870
	-0.239504
	-0.106787
	0.145761
	0.314556
	0.577735
	0.735900
	0.966545
	1.103772
	1.299949
	1.428479
	1.617570
	1.729350
	1.962573
	2.153598
	2.401962
	2.553043
	2.741170
	2.874856
	3.087465
	3.215031
	3.402515
	3.531692
	3.771040
	3.809697
	3.635420
	3.499478
	3.278170
	3.126766
	2.889674
	2.744713
	2.510844
	2.317241
	2.054059
	1.917797
	1.715498
	1.566351
	1.348269
	1.197834
	1.003590
	0.852511
	0.605760
	0.450816
	0.252063
	0.096475
	-0.168313
	-0.322935
	-0.525230
	-0.608983
	-0.642484
	-0.650215
	-0.643129
	-0.655369
	-0.623157
	-0.568717
	-0.473690
	-0.437290
	-0.419895
	-0.401856
	-0.371254
	-0.346128
	-0.310049
	-0.273327
	-0.207935
	-0.180554
	-0.166059
	-0.164126
	-0.157683
	-0.159616
	-0.154140
	-0.157039
	-0.172823
	-0.207935
	-0.216310
	-0.188285
	-0.167347
	-0.154462
	-0.153818
	-0.148986
	-0.151563
	-0.147053
	-0.147375
	-0.148019
	-0.146409
	-0.152851
	-0.148664
	-0.151563
	-0.146409
	-0.148342
	-0.140611
	-0.143832
	-0.168958
	-0.197627
	-0.207613
	-0.178299
	-0.156395
	-0.143832
	-0.141899
	-0.117417
	-0.037208
	-0.008860
	0.009501
	0.009823
	0.013366
	0.009501
	0.017554
	0.013689
	0.013044
	0.016588
	0.013044
	0.013689
	-0.009827
	-0.040107
	-0.050415
	-0.023356
	0.003380
	0.006924
	0.015299
	0.013689
	0.015943
	0.014977
	0.018843
	0.016910
	0.011112
	0.014655
	0.010789
	0.012722
	0.015299
	0.014333
	0.016266
	0.012722
	-0.006606
	-0.044294
	-0.050093
	-0.045261
	-0.098412
	-0.117095
	-0.131913
	-0.132557
	-0.136101
	-0.133846
	-0.135779
	-0.137067
	-0.135134
	-0.118706
	-0.037852
	-0.007572
	0.009501
	0.014011
	0.017232
	0.018520
	-0.005961
	-0.034308
	-0.046549
	-0.008860
	0.045901
	0.069417
	0.080369
	0.081335
	0.085523
	0.082302
	0.084234
	0.082946
	0.081980
	0.081657
	0.080047
	0.082302
	0.079725
	0.083912
	0.083912
	0.081013
	0.060075
	0.022064
	0.016910
	0.037848
	0.066840
	0.075215
	0.079725
	0.081657
	0.081335
	0.081657
	0.078758
	0.080691
	0.078758
	0.024963
	-0.141255
	-0.212767
	-0.239181
	-0.253355
	-0.253355
	-0.257865
	-0.278481
	-0.318103
	-0.359335
	-0.344195
	-0.329055
	-0.317136
	-0.316170
	-0.311660
	-0.308439
	-0.320035
	-0.346450
	-0.362234
	-0.363845
	-0.370931
	-0.365777
	-0.367388
	-0.365777
	-0.360946
	-0.361912
	-0.360623
	-0.383494
	-0.411197
	-0.420217
	-0.392836
	-0.368354
	-0.361590
	-0.353537
	-0.351926
	-0.348383
	-0.349993
	-0.345483
	-0.347094
	-0.350315
	-0.346450
	-0.348060
	-0.344195
	-0.344517
	-0.340329
	-0.339363
	-0.340329
	-0.357402
	-0.392514
	-0.397990
	-0.335497
	-0.189896
	-0.129014
	-0.103244
	-0.093258
	-0.091647
	-0.063300
	0.010467
	0.045579
	0.056532
	0.062330
	0.065873
	0.073282
	0.108072
	0.119024
	0.128044
	0.125789
	0.106139
	0.081980
	0.100341
	0.142540
	0.167988
	0.181195
	0.183772
	0.188282
	0.187315
	0.187315
	0.187960
	0.182161
	0.184738
	0.179262
	0.182806
	0.178940
	0.183128
	0.180551
	0.180551
	0.180551
	0.155747
	0.122568
	0.110649
	0.141251
	0.160579
	0.173142
	0.177329
	0.174430
	0.177652
	0.173464
	0.177652
	0.171531
	0.175075
	0.109038
	-0.086815
	-0.169280
	-0.204714
	-0.214378
	-0.222753
	-0.220820
	-0.244980
	-0.277515
	-0.283635
	-0.272361
	-0.274293
	-0.279125
	-0.277515
	-0.279447
	-0.279125
	-0.275582
	-0.279447
	-0.276548
	-0.277837
	-0.286856
	-0.315203
	-0.329377
	-0.329699
	-0.330343
	-0.327444
	-0.332276
	-0.350637
	-0.380595
	-0.389937
	-0.362878
	-0.339685
	-0.328089
	-0.327444
	-0.321646
	-0.322935
	-0.320680
	-0.317458
	-0.318747
	-0.314559
	-0.318103
	-0.314881
	-0.319391
	-0.315203
	-0.313593
	-0.313593
	-0.310694
	-0.332920
	-0.360301
	-0.372220
	-0.322935
	-0.239826
	-0.205680
	-0.187963
	-0.186675
	-0.176689
	-0.178944
	-0.175722
	-0.177655
	-0.178622
	-0.178622
	-0.183131
	-0.176367
	-0.179588
	-0.175400
	-0.174112
	-0.184098
	-0.234027
	-0.281702
	-0.291044
	-0.271072
	-0.244980
	-0.236604
	-0.234027
	-0.231450
	-0.231128
	-0.228229
	-0.230162
	-0.225974
	-0.228551
	-0.230162
	-0.228229
	-0.230162
	-0.226619
	-0.227263
	-0.222431
	-0.224686
	-0.241758
	-0.274293
	-0.282991
	-0.256898
	-0.233061
	-0.222109
	-0.220820
	-0.214378
	-0.217599
	-0.213733
	-0.212123
	-0.212767
	-0.213411
	-0.187319
	-0.093258
	-0.058146
	-0.036563
	-0.032698
	-0.027222
	-0.003384
	0.052022
	0.049123
	0.053310
	0.085201
	0.109038
	0.122890
	0.124178
	0.137708
	0.165733
	0.183128
	0.185705
	0.187315
	0.187960
	0.185060
	0.185060
	0.192469
	0.226293
	0.233058
	0.241111
	0.240467
	0.220817
	0.186027
	0.172820
	0.201811
	0.222749
	0.234990
	0.235957
	0.241755
	0.239822
	0.239822
	0.240144
	0.235312
	0.235957
	0.230158
	0.231769
	0.227259
	0.233380
	0.230481
	0.230481
	0.231447
	0.203744
	0.172175
	0.158968
	0.122890
	-0.048804
	-0.119994
	-0.148342
	-0.163482
	-0.166059
	-0.180876
	-0.208257
	-0.225330
	-0.227907
	-0.231450
	-0.233061
	-0.240470
	-0.271716
	-0.280736
	-0.284924
	-0.283313
	-0.307150
	-0.361268
	-0.424727
	-0.427948
	-0.409909
	-0.407010
	-0.401211
	-0.398956
	-0.399923
	-0.396057
	-0.397024
	-0.392514
	-0.394125
	-0.393158
	-0.393158
	-0.394125
	-0.391225
	-0.390259
	-0.384783
	-0.386394
	-0.406365
	-0.434390
	-0.446953
	-0.417640
	-0.396379
	-0.383494
	-0.379307
	-0.377052
	-0.372864
	-0.374153
	-0.369321
	-0.375119
	-0.371254
	-0.330988
	-0.208902
	-0.156073
	-0.138034
	-0.125471
	-0.124182
	-0.119672
	-0.144476
	-0.182487
	-0.223397
	-0.210834
	-0.190218
	-0.182809
	-0.177011
	-0.177977
	-0.172823
	-0.186997
	-0.212445
	-0.225330
	-0.234672
	-0.233061
	-0.236282
	-0.233061
	-0.234672
	-0.227263
	-0.230806
	-0.230162
	-0.252067
	-0.285246
	-0.290078
	-0.268173
	-0.241436
	-0.234994
	-0.226296
	-0.227585
	-0.222431
	-0.221464
	-0.220820
	-0.220176
	-0.223719
	-0.222753
	-0.224686
	-0.220498
	-0.222431
	-0.219532
	-0.216633
	-0.220176
	-0.237893
	-0.271072
	-0.276870
	-0.213089
	-0.066843
	-0.006928
	0.015621
	0.027540
	0.027218
	0.057820
	0.131587
	0.164766
	0.176041
	0.177652
	0.181517
	0.189892
	0.223716
	0.233058
	0.241755
	0.241111
	0.222105
	0.197623
	0.213730
	0.253996
	0.279766
	0.293940
	0.297483
	0.300382
	0.298450
	0.296517
	0.298772
	0.292651
	0.295873
	0.290718
	0.291041
	0.290396
	0.288464
	0.290074
	0.287175
	0.289430
	0.265270
	0.230481
	0.222105
	0.242721
	0.269458
	0.277189
	0.282987
	0.281055
	0.282665
	0.282987
	0.278800
	0.279766
	0.276867
	0.206321
	0.014333
	-0.069742
	-0.101311
	-0.116773
	-0.114196
	-0.122249
	-0.141577
	-0.173790
	-0.183453
	-0.158650
	-0.137067
	-0.123538
	-0.123538
	-0.118384
	-0.117739
	-0.128370
	-0.156073
	-0.170890
	-0.174434
	-0.182487
	-0.175078
	-0.179910
	-0.179588
	-0.176367
	-0.176367
	-0.175078
	-0.197305
	-0.225330
	-0.238537
	-0.210512
	-0.187641
	-0.176045
	-0.173145
	-0.170568
	-0.167991
	-0.168313
	-0.165414
	-0.170568
	-0.167991
	-0.172179
	-0.168636
	-0.170568
	-0.167347
	-0.165736
	-0.166059
	-0.164126
	-0.187319
	-0.215988
	-0.227907
	-0.187641
	-0.136423
	-0.111619
	-0.101311
	-0.101311
	-0.096479
	-0.099700
	-0.094224
	-0.098090
	-0.096157
	-0.109042
	-0.141255
	-0.149308
	-0.157683
	-0.154784
	-0.157361
	-0.154784
	-0.177011
	-0.207935
	-0.214056
	-0.205680
	-0.207291
	-0.211801
	-0.209868
	-0.212445
	-0.208257
	-0.210834
	-0.210512
	-0.207291
	-0.211801
	-0.211156
	-0.212445
	-0.208257
	-0.210512
	-0.205036
	-0.204714
	-0.206647
	-0.223719
	-0.257865
	-0.263985
	-0.242403
	-0.213733
	-0.205680
	-0.200848
	-0.198271
	-0.199238
	-0.196983
	-0.197949
	-0.196016
	-0.198593
	-0.152207
	-0.034631
	0.012722
	0.037526
	0.042358
	0.048478
	0.076181
	0.130943
	0.126433
	0.130299
	0.160579
	0.184738
	0.198268
	0.199556
	0.214052
	0.242399
	0.257217
	0.260116
	0.258828
	0.261083
	0.255284
	0.257861
	0.267203
	0.297483
	0.309080
	0.314878
	0.315522
	0.289752
	0.259150
	0.244654
	0.270747
	0.295550
	0.306181
	0.309080
	0.306503
	0.310690
	0.305859
	0.307147
	0.306825
	0.304570
	0.302315
	0.299738
	0.301349
	0.296517
	0.304248
	0.299416
	0.299416
	0.277833
	0.240144
	0.230803
	0.177007
	0.018520
	-0.058146
	-0.083594
	-0.096157
	-0.100022
	-0.112585
	-0.144798
	-0.153173
	-0.164448
	-0.165092
	-0.169280
	-0.176367
	-0.207291
	-0.215666
	-0.218565
	-0.222109
	-0.239504
	-0.297809
	-0.360946
	-0.365777
	-0.346772
	-0.342584
	-0.339685
	-0.335175
	-0.337752
	-0.331632
	-0.335820
	-0.330988
	-0.335497
	-0.333565
	-0.332598
	-0.332598
	-0.330343
	-0.330021
	-0.325189
	-0.329377
	-0.344517
	-0.378340
	-0.383172
	-0.362234
	-0.332598
	-0.322612
	-0.321002
	-0.315526
	-0.318747
	-0.314559
	-0.315526
	-0.311660
	-0.315203
	-0.244013
	-0.068132
	0.004347
	0.037204
	0.048800
	0.056854
	0.053954
	0.038170
	0.002736
	-0.005961
	0.016910
	0.042036
	0.054599
	0.052988
	0.086812
	0.157680
	0.191181
	0.203422
	0.205677
	0.206643
	0.202455
	0.207932
	0.201489
	0.208898
	0.206643
	0.206965
	0.204388
	0.182806
	0.149949
	0.135131
	0.162512
	0.184416
	0.197623
	0.198590
	0.201489
	0.202778
	0.198912
	0.201811
	0.197623
	0.202455
	0.196657
	0.199878
	0.197623
	0.194080
	0.198912
	0.194402
	0.195691
	0.170887
	0.138996
	0.129010
	0.118380
	0.076503
	0.051377
	0.048156
	0.041714
	0.042680
	0.038492
	0.039137
	0.039137
	0.035593
	0.064907
	0.134809
	0.166699
	0.177329
	0.186027
	0.188604
	0.186027
	0.168310
	0.131265
	0.122568
	0.154458
	0.216307
	0.233702
	0.242399
	0.246587
	0.244654
	0.247231
	0.244010
	0.246265
	0.241433
	0.239178
	0.240467
	0.237567
	0.239500
	0.237889
	0.241755
	0.238534
	0.216629
	0.184094
	0.169598
	0.195046
	0.218884
	0.233058
	0.233702
	0.234346
	0.235635
	0.232413
	0.235635
	0.228226
	0.231447
	0.160257
	0.002092
	-0.063622
	-0.092936
	-0.100989
	-0.107431
	-0.106143
	-0.131591
	-0.160582
	-0.170568
	-0.159938
	-0.163482
	-0.167347
	-0.165092
	-0.169280
	-0.165092
	-0.166381
	-0.163804
	-0.162515
	-0.166381
	-0.177655
	-0.209224
	-0.216955
	-0.224041
	-0.221787
	-0.222753
	-0.221464
	-0.240792
	-0.274293
	-0.280736
	-0.261086
	-0.231773
	-0.224364
	-0.217599
	-0.215988
	-0.212445
	-0.213733
	-0.215344
	-0.212445
	-0.215666
	-0.213733
	-0.217599
	-0.212123
	-0.212445
	-0.210190
	-0.208257
	-0.210512
	-0.226296
	-0.262052
	-0.264630
	-0.223075
	-0.136423
	-0.101633
	-0.087782
	-0.081661
	-0.081339
	-0.078762
	-0.080695
	-0.077151
	-0.081017
	-0.080051
	-0.081339
	-0.081017
	-0.079728
	-0.081661
	-0.075219
	-0.091003
	-0.136745
	-0.180554
	-0.197627
	-0.175078
	-0.152851
	-0.141577
	-0.139966
	-0.135779
	-0.134812
	-0.135779
	-0.132235
	-0.134490
	-0.133524
	-0.138034
	-0.131913
	-0.132557
	-0.133202
	-0.129658
	-0.134168
	-0.132235
	-0.151563
	-0.179588
	-0.194084
	-0.167347
	-0.143510
	-0.135134
	-0.127081
	-0.130302
	-0.125148
	-0.126115
	-0.122894
	-0.126115
	-0.125148
	-0.088426
	-0.003384
	0.033983
	0.047512
	0.058786
	0.056532
	0.061363
	0.039459
	0.007568
	-0.004995
	0.019165
	0.045257
	0.053632
	0.060719
	0.089711
	0.165089
	0.190859
	0.207609
	0.208898
	0.207932
	0.209542
	0.205999
	0.207932
	0.204066
	0.210186
	0.206321
	0.207287
	0.189248
	0.151881
	0.140607
	0.160579
	0.190215
	0.195046
	0.203100
	0.201167
	0.203100
	0.201811
	0.202778
	0.201489
	0.196335
	0.198590
	0.193436
	0.196979
	0.195691
	0.198268
	0.199878
	0.194724
	0.177974
	0.138352
	0.130621
	0.120635
	0.074893
	0.055243
	0.046546
	0.044935
	0.039137
	0.042358
	0.039459
	0.040103
	0.038814
	0.071672
	0.141573
	0.170565
	0.185705
	0.186349
	0.190215
	0.187638
	0.171531
	0.134809
	0.121601
	0.161223
	0.212119
	0.237567
	0.243688
	0.248198
	0.248842
	0.245621
	0.250452
	0.244654
	0.245298
	0.240789
	0.244332
	0.240144
	0.241433
	0.244010
	0.240144
	0.241755
	0.218562
	0.187638
	0.170887
	0.196335
	0.221783
	0.234346
	0.235312
	0.234668
	0.236923
	0.232413
	0.234990
	0.232735
	0.232413
	0.158968
	0.000481
	-0.075863
	-0.135456
	-0.166059
	-0.205036
	-0.217599
	-0.244013
	-0.299097
	-0.368354
	-0.387038
	-0.397990
	-0.418606
	-0.445665
	-0.461771
	-0.462415
	-0.399601
	-0.260764
	-0.101311
	0.134486
	0.325830
	0.563561
	0.741376
	0.952371
	1.103772
	1.285453
	1.431056
	1.609517
	1.738047
	1.952909
	2.151343
	2.385534
	2.551432
	2.726996
	2.878721
	3.071680
	3.219541
	3.388018
	3.541678
	3.760088
	3.759443
	3.596441
	3.438916
	3.236292
	3.063627
	2.851984
	2.686407
	2.476375
	2.259902
	2.003806
	1.853048
	1.666534
	1.511589
	1.302848
	1.147582
	0.964290
	0.792273
	0.562273
	0.394122
	0.211153
	0.032050
	-0.206647
	-0.377374
	-0.560020
	-0.634431
	-0.671154
	-0.669221
	-0.665677
	-0.668577
	-0.650215
	-0.585146
	-0.494628
	-0.462738
	-0.444054
	-0.427304
	-0.392514
	-0.366744
	-0.330988
	-0.288467
	-0.229518
	-0.201170
	-0.192473
	-0.184742
	-0.185386
	-0.178622
	-0.177977
	-0.177977
	-0.193439
	-0.231773
	-0.239504
	-0.219210
	-0.188607
	-0.179910
	-0.174756
	-0.171535
	-0.173468
	-0.170246
	-0.172823
	-0.169602
	-0.172501
	-0.171213
	-0.168958
	-0.169602
	-0.167025
	-0.169602
	-0.165736
	-0.169602
	-0.182809
	-0.215666
	-0.229196
	-0.171535
	-0.076829
	-0.033342
	-0.021423
	-0.010471
	-0.009505
	-0.009505
	-0.005639
	-0.007250
	-0.005961
	-0.000485
	0.032694
	0.040747
	0.050411
	0.053954
	0.054277
	0.054921
	0.032694
	0.001448
	-0.014981
	0.011112
	0.036882
	0.048156
	0.052666
	0.052022
	0.057498
	0.050411
	0.055887
	0.053310
	0.052022
	0.050411
	0.048156
	0.052022
	0.048478
	0.052988
	0.053310
	0.053632
	0.033338
	-0.004028
	-0.010471
	-0.066521
	-0.190218
	-0.247235
	-0.266240
	-0.273971
	-0.279769
	-0.292655
	-0.324223
	-0.331954
	-0.338074
	-0.340652
	-0.338719
	-0.354503
	-0.378662
	-0.390259
	-0.388326
	-0.394769
	-0.411519
	-0.469502
	-0.537149
	-0.536827
	-0.522331
	-0.512667
	-0.511057
	-0.504614
	-0.504292
	-0.504292
	-0.499460
	-0.501393
	-0.498172
	-0.501715
	-0.495272
	-0.494628
	-0.492695
	-0.488508
	-0.490763
	-0.486897
	-0.506225
	-0.534250
	-0.548423
	-0.521365
	-0.497205
	-0.484320
	-0.478200
	-0.476267
	-0.472079
	-0.475945
	-0.467892
	-0.470469
	-0.470147
	-0.385105
	-0.218243
	-0.144476
	-0.117739
	-0.101633
	-0.099056
	-0.096157
	-0.113230
	-0.148342
	-0.158328
	-0.139644
	-0.109686
	-0.100022
	-0.091325
	-0.058790
	0.014011
	0.044291
	0.052666
	0.059431
	0.057820
	0.059109
	0.059431
	0.061686
	0.061363
	0.061686
	0.063296
	0.058786
	0.041392
	0.003380
	-0.003384
	0.012400
	0.044291
	0.053310
	0.056854
	0.061041
	0.058464
	0.059753
	0.057820
	0.060075
	0.054599
	0.056209
	0.056854
	0.056209
	0.055887
	0.056209
	0.059109
	0.053310
	0.040103
	-0.000485
	-0.007894
	-0.021101
	-0.064588
	-0.082305
	-0.092291
	-0.091647
	-0.096479
	-0.060079
	0.012400
	0.040103
	0.049767
	0.052022
	0.056532
	0.053954
	0.057498
	0.070705
	0.101307
	0.111937
	0.098730
	0.065873
	0.050733
	0.077470
	0.100341
	0.126433
	0.157358
	0.172175
	0.175397
	0.176363
	0.178618
	0.174752
	0.175719
	0.173142
	0.174108
	0.172820
	0.172498
	0.173786
	0.170565
	0.174108
	0.150915
	0.117736
	0.104206
	0.128044
	0.154458
	0.162512
	0.169598
	0.167021
	0.172175
	0.168954
	0.171531
	0.167988
	0.167988
	0.075215
	-0.109364
	-0.180554
	-0.216310
	-0.223075
	-0.228551
	-0.227907
	-0.248845
	-0.277837
	-0.291366
	-0.270750
	-0.241114
	-0.233383
	-0.226296
	-0.226941
	-0.222753
	-0.240148
	-0.264307
	-0.275260
	-0.283313
	-0.283635
	-0.286534
	-0.280092
	-0.283635
	-0.277515
	-0.280414
	-0.278481
	-0.292655
	-0.327766
	-0.337108
	-0.318747
	-0.288145
	-0.279769
	-0.272038
	-0.270428
	-0.268495
	-0.267207
	-0.267207
	-0.264952
	-0.270428
	-0.265596
	-0.267207
	-0.263341
	-0.264952
	-0.263019
	-0.260764
	-0.262375
	-0.276226
	-0.314237
	-0.318425
	-0.257865
	-0.144154
	-0.100345
	-0.081983
	-0.073930
	-0.071675
	-0.033342
	0.031728
	0.065229
	0.073282
	0.078758
	0.078758
	0.095509
	0.124823
	0.135453
	0.144150
	0.141895
	0.126755
	0.102918
	0.119346
	0.156069
	0.182161
	0.196013
	0.196657
	0.203422
	0.201489
	0.201489
	0.201489
	0.199878
	0.199556
	0.192469
	0.196335
	0.192469
	0.194724
	0.196335
	0.196335
	0.195369
	0.176685
	0.143184
	0.124500
	0.149949
	0.174430
	0.186349
	0.189570
	0.192792
	0.192792
	0.190537
	0.195046
	0.188604
	0.189570
	0.091966
	-0.082305
	-0.163159
	-0.192473
	-0.200526
	-0.208579
	-0.207935
	-0.225974
	-0.273005
	-0.312626
	-0.302641
	-0.280414
	-0.274615
	-0.265918
	-0.266562
	-0.264630
	-0.277515
	-0.304895
	-0.315526
	-0.322935
	-0.321002
	-0.326156
	-0.321968
	-0.321324
	-0.318747
	-0.316492
	-0.316492
	-0.329377
	-0.366422
	-0.374475
	-0.356436
	-0.325834
	-0.315526
	-0.307150
	-0.308439
	-0.308761
	-0.303607
	-0.308117
	-0.303285
	-0.305218
	-0.305218
	-0.305218
	-0.302963
	-0.301352
	-0.301674
	-0.295876
	-0.300064
	-0.310694
	-0.346450
	-0.353537
	-0.305218
	-0.222753
	-0.186997
	-0.176045
	-0.166703
	-0.168958
	-0.163804
	-0.166381
	-0.161549
	-0.163159
	-0.180554
	-0.204070
	-0.219210
	-0.221142
	-0.222753
	-0.219532
	-0.222753
	-0.235638
	-0.270106
	-0.283957
	-0.273971
	-0.278481
	-0.276870
	-0.275904
	-0.274615
	-0.273971
	-0.272683
	-0.271072
	-0.275582
	-0.272038
	-0.275582
	-0.269139
	-0.270750
	-0.268495
	-0.267207
	-0.269461
	-0.265596
	-0.282024
	-0.313915
	-0.327122
	-0.303607
	-0.278481
	-0.270428
	-0.261408
	-0.263985
	-0.258187
	-0.258831
	-0.255610
	-0.256254
	-0.258187
	-0.196339
	-0.088748
	-0.038496
	-0.019813
	-0.013048
	-0.006928
	0.025929
	0.082946
	0.072960
	0.073926
	0.097442
	0.126433
	0.139640
	0.141251
	0.161223
	0.185060
	0.200523
	0.202778
	0.203744
	0.203422
	0.202455
	0.203100
	0.215663
	0.244654
	0.253030
	0.260116
	0.258506
	0.243688
	0.206321
	0.190537
	0.213730
	0.235635
	0.250130
	0.252063
	0.253674
	0.254640
	0.251419
	0.252385
	0.247875
	0.250452
	0.244332
	0.245621
	0.249808
	0.245943
	0.245943
	0.244010
	0.245943
	0.225971
	0.191181
	0.177652
	0.131587
	0.035271
	-0.007572
	-0.022390
	-0.032698
	-0.032054
	-0.033664
	-0.030765
	-0.031087
	-0.036563
	-0.036563
	-0.040751
	-0.035597
	-0.036563
	-0.001129
	0.072960
	0.097442
	0.098086
	0.064907
	0.053310
	0.074893
	0.100019
	0.113226
	0.112904
	0.118058
	0.118058
	0.115481
	0.116769
	0.114515
	0.114515
	0.110327
	0.113870
	0.113548
	0.111293
	0.115159
	0.111615
	0.113548
	0.096475
	0.063940
	0.046868
	0.069094
	0.096153
	0.104851
	0.110327
	0.109360
	0.113226
	0.108716
	0.112582
	0.110005
	0.107428
	0.040747
	-0.085849
	-0.132879
	-0.156395
	-0.158650
	-0.164770
	-0.164770
	-0.178299
	-0.230806
	-0.268495
	-0.262697
	-0.236604
	-0.228873
	-0.225008
	-0.221787
	-0.223719
	-0.235316
	-0.263663
	-0.273327
	-0.278159
	-0.280414
	-0.279769
	-0.282347
	-0.278481
	-0.279125
	-0.273327
	-0.274938
	-0.288789
	-0.321002
	-0.336464
	-0.311016
	-0.286212
	-0.274293
	-0.269139
	-0.267207
	-0.264952
	-0.267207
	-0.261730
	-0.264307
	-0.263663
	-0.262697
	-0.266240
	-0.261730
	-0.264307
	-0.258831
	-0.259798
	-0.259798
	-0.270750
	-0.310049
	-0.316170
	-0.265918
	-0.184098
	-0.150919
	-0.138356
	-0.130625
	-0.131591
	-0.127403
	-0.128370
	-0.126437
	-0.126759
	-0.129336
	-0.127725
	-0.129336
	-0.125793
	-0.126759
	-0.121283
	-0.138678
	-0.181521
	-0.226941
	-0.245946
	-0.225330
	-0.202459
	-0.187319
	-0.185064
	-0.183131
	-0.179910
	-0.181199
	-0.177977
	-0.181521
	-0.177977
	-0.182487
	-0.178622
	-0.178944
	-0.180232
	-0.176367
	-0.178299
	-0.173468
	-0.195050
	-0.224364
	-0.236604
	-0.216310
	-0.189574
	-0.178622
	-0.172501
	-0.172823
	-0.167991
	-0.170246
	-0.167025
	-0.167991
	-0.169602
	-0.154140
	-0.129980
	-0.128370
	-0.153173
	-0.177011
	-0.202781
	-0.218887
	-0.237249
	-0.307150
	-0.367388
	-0.388648
	-0.398956
	-0.408942
	-0.446953
	-0.455973
	-0.462738
	-0.379629
	-0.245302
	-0.071997
	0.154136
	0.351923
	0.581600
	0.764570
	0.966867
	1.126321
	1.295761
	1.459404
	1.623046
	1.769294
	1.964506
	2.170993
	2.396164
	2.568506
	2.740847
	2.896761
	3.085532
	3.235648
	3.398649
	3.565838
	3.772007
	3.749457
	3.586133
	3.425386
	3.226950
	3.049453
	2.842964
	2.671911
	2.478630
	2.240574
	2.002195
	1.830821
	1.660414
	1.493228
	1.295439
	1.132119
	0.953337
	0.774878
	0.551965
	0.378015
	0.204388
	0.009823
	-0.216633
	-0.396057
	-0.565818
	-0.641518
	-0.672120
	-0.665033
	-0.656980
	-0.661812
	-0.644739
	-0.579025
	-0.493984
	-0.456939
	-0.440833
	-0.422794
	-0.386071
	-0.360623
	-0.324223
	-0.281058
	-0.221787
	-0.196661
	-0.190540
	-0.181521
	-0.183453
	-0.176367
	-0.177977
	-0.175722
	-0.188607
	-0.226941
	-0.234027
	-0.220176
	-0.187963
	-0.177977
	-0.173790
	-0.170890
	-0.171213
	-0.167025
	-0.170246
	-0.168313
	-0.169280
	-0.169924
	-0.168958
	-0.170568
	-0.168636
	-0.169280
	-0.159294
	-0.164448
	-0.178622
	-0.212767
	-0.227263
	-0.206647
	-0.179910
	-0.165092
	-0.166703
	-0.119350
	-0.049771
	-0.023034
	-0.010471
	-0.009505
	-0.005639
	-0.008216
	-0.005317
	-0.003706
	-0.007572
	-0.003706
	-0.006283
	-0.002740
	-0.021423
	-0.055569
	-0.068454
	-0.051381
	-0.020457
	-0.010793
	-0.003384
	-0.004995
	-0.003062
	-0.000807
	-0.004351
	-0.001774
	-0.006606
	-0.005639
	-0.007572
	-0.004351
	-0.003706
	-0.005639
	-0.000807
	-0.003706
	-0.016591
	-0.053314
	-0.068132
	-0.086815
	-0.130947
	-0.141899
	-0.148342
	-0.152851
	-0.152207
	-0.152529
	-0.151563
	-0.155428
	-0.152851
	-0.116451
	-0.047516
	-0.018846
	-0.006928
	-0.000163
	-0.001451
	0.004991
	-0.013692
	-0.046549
	-0.062011
	-0.026255
	0.029795
	0.051055
	0.062008
	0.061363
	0.067806
	0.063618
	0.066195
	0.065229
	0.063296
	0.062974
	0.058142
	0.064907
	0.060719
	0.066517
	0.064263
	0.063618
	0.050411
	0.011434
	-0.000163
	0.013366
	0.045579
	0.055243
	0.061686
	0.059431
	0.064263
	0.063618
	0.060719
	0.063940
	0.060075
	-0.029154
	-0.179910
	-0.236604
	-0.261408
	-0.270750
	-0.270750
	-0.276870
	-0.285246
	-0.337752
	-0.375441
	-0.370931
	-0.345806
	-0.334531
	-0.334531
	-0.325834
	-0.328089
	-0.342262
	-0.367388
	-0.377696
	-0.381240
	-0.386716
	-0.382850
	-0.384461
	-0.381240
	-0.380273
	-0.377374
	-0.376085
	-0.389937
	-0.420539
	-0.438256
	-0.414419
	-0.386394
	-0.374797
	-0.370287
	-0.367388
	-0.365777
	-0.367388
	-0.360301
	-0.363200
	-0.363523
	-0.364811
	-0.363845
	-0.360301
	-0.362878
	-0.355147
	-0.358691
	-0.352892
	-0.364811
	-0.399601
	-0.411197
	-0.329699
	-0.192473
	-0.141255
	-0.114840
	-0.106787
	-0.102277
	-0.059434
	0.006280
	0.036560
	0.041714
	0.050411
	0.047512
	0.069739
	0.096475
	0.107106
	0.113226
	0.112582
	0.103240
	0.078758
	0.091321
	0.121279
	0.152848
	0.167343
	0.169276
	0.173464
	0.170565
	0.173464
	0.172498
	0.171531
	0.170887
	0.166699
	0.167666
	0.165089
	0.167666
	0.167021
	0.165411
	0.168310
	0.152203
	0.116769
	0.098730
	0.119991
	0.148016
	0.157358
	0.164122
	0.162512
	0.166377
	0.161545
	0.165089
	0.162834
	0.158324
	0.052022
	-0.124504
	-0.192473
	-0.222109
	-0.229518
	-0.233061
	-0.237893
	-0.245302
	-0.284601
	-0.295554
	-0.293621
	-0.293621
	-0.292332
	-0.295232
	-0.289111
	-0.291366
	-0.289433
	-0.287823
	-0.289111
	-0.288145
	-0.308761
	-0.330988
	-0.343551
	-0.343873
	-0.342584
	-0.342906
	-0.341296
	-0.354503
	-0.386071
	-0.402500
	-0.379629
	-0.353537
	-0.342584
	-0.334853
	-0.336142
	-0.331954
	-0.332598
	-0.327766
	-0.329699
	-0.329377
	-0.327122
	-0.331954
	-0.325512
	-0.327122
	-0.322290
	-0.320035
	-0.320680
	-0.330021
	-0.369643
	-0.379307
	-0.329699
	-0.248201
	-0.211156
	-0.199882
	-0.190862
	-0.193762
	-0.186353
	-0.187963
	-0.188285
	-0.187319
	-0.191185
	-0.187963
	-0.190218
	-0.186997
	-0.186030
	-0.185064
	-0.199560
	-0.243369
	-0.285890
	-0.305218
	-0.285890
	-0.258509
	-0.248201
	-0.240470
	-0.241114
	-0.236282
	-0.238215
	-0.235638
	-0.234994
	-0.238537
	-0.238215
	-0.241758
	-0.235638
	-0.237249
	-0.232417
	-0.231450
	-0.233061
	-0.243369
	-0.281702
	-0.290078
	-0.275582
	-0.245946
	-0.232739
	-0.230162
	-0.225330
	-0.226619
	-0.222753
	-0.223719
	-0.224041
	-0.221787
	-0.174756
	-0.092936
	-0.058790
	-0.044617
	-0.040429
	-0.036885
	0.009179
	0.056532
	0.050733
	0.044613
	0.067806
	0.098408
	0.110005
	0.117092
	0.131265
	0.163156
	0.173464
	0.176041
	0.178940
	0.175075
	0.177329
	0.171853
	0.189892
	0.216629
	0.225004
	0.234668
	0.232413
	0.222427
	0.184094
	0.165733
	0.185060
	0.209864
	0.226937
	0.227259
	0.229192
	0.232091
	0.226293
	0.228548
	0.226293
	0.226615
	0.224360
	0.221461
	0.224038
	0.218884
	0.223394
	0.220817
	0.222105
	0.209864
	0.171531
	0.156391
	0.056532
	-0.081017
	-0.140288
	-0.162515
	-0.173145
	-0.175722
	-0.194084
	-0.224041
	-0.230162
	-0.237893
	-0.238215
	-0.239826
	-0.255932
	-0.278481
	-0.291688
	-0.291366
	-0.296520
	-0.304251
	-0.372864
	-0.437612
	-0.441477
	-0.425049
	-0.412486
	-0.413452
	-0.405399
	-0.406365
	-0.403788
	-0.404755
	-0.404433
	-0.402178
	-0.405399
	-0.401211
	-0.402178
	-0.398634
	-0.396057
	-0.393802
	-0.392514
	-0.405077
	-0.434390
	-0.451463
	-0.433102
	-0.404755
	-0.392192
	-0.385749
	-0.387360
	-0.379951
	-0.381240
	-0.379307
	-0.378018
	-0.379307
	-0.308439
	-0.208257
	-0.159294
	-0.145442
	-0.133202
	-0.128370
	-0.130947
	-0.136423
	-0.192151
	-0.231128
	-0.225008
	-0.201815
	-0.188930
	-0.189252
	-0.183453
	-0.185064
	-0.198916
	-0.226941
	-0.236604
	-0.239181
	-0.245302
	-0.243047
	-0.245302
	-0.240792
	-0.241758
	-0.239504
	-0.233705
	-0.249812
	-0.281058
	-0.298453
	-0.278803
	-0.251744
	-0.239826
	-0.232095
	-0.234350
	-0.229518
	-0.230162
	-0.228551
	-0.228551
	-0.229196
	-0.226296
	-0.229196
	-0.225008
	-0.227263
	-0.224364
	-0.222109
	-0.225008
	-0.231773
	-0.271394
	-0.280414
	-0.195372
	-0.063944
	-0.006283
	0.011112
	0.024319
	0.023030
	0.074571
	0.135453
	0.162189
	0.172820
	0.170887
	0.175075
	0.193436
	0.221783
	0.231447
	0.236923
	0.237889
	0.224360
	0.204388
	0.213086
	0.241433
	0.270102
	0.288464
	0.290718
	0.295228
	0.295873
	0.293940
	0.293296
	0.287819
	0.289752
	0.284920
	0.288464
	0.288141
	0.284598
	0.287819
	0.283310
	0.286209
	0.270424
	0.234668
	0.215663
	0.229192
	0.261083
	0.270424
	0.277511
	0.277189
	0.279766
	0.278478
	0.274934
	0.276223
	0.271391
	0.154458
	-0.016914
	-0.080373
	-0.111941
	-0.118706
	-0.121283
	-0.128370
	-0.137067
	-0.175400
	-0.188285
	-0.173468
	-0.142543
	-0.129014
	-0.127403
	-0.122571
	-0.124504
	-0.140933
	-0.168313
	-0.175722
	-0.179910
	-0.186030
	-0.182165
	-0.185386
	-0.184420
	-0.180876
	-0.181521
	-0.179588
	-0.193762
	-0.223397
	-0.242081
	-0.224041
	-0.193762
	-0.184742
	-0.178299
	-0.176367
	-0.171535
	-0.175078
	-0.172501
	-0.171213
	-0.174434
	-0.174434
	-0.177011
	-0.171213
	-0.173790
	-0.169602
	-0.168313
	-0.169924
	-0.178944
	-0.217277
	-0.228229
	-0.195372
	-0.139966
	-0.116773
	-0.108720
	-0.102277
	-0.103888
	-0.100989
	-0.103566
	-0.098734
	-0.102922
	-0.120317
	-0.146409
	-0.158328
	-0.160582
	-0.163159
	-0.159938
	-0.162515
	-0.169280
	-0.203425
	-0.220820
	-0.222109
	-0.222109
	-0.215666
	-0.217921
	-0.213733
	-0.213089
	-0.216633
	-0.211156
	-0.212767
	-0.210834
	-0.216955
	-0.212445
	-0.211801
	-0.209868
	-0.207613
	-0.207613
	-0.207291
	-0.221142
	-0.250456
	-0.271072
	-0.251422
	-0.222753
	-0.210512
	-0.205680
	-0.205036
	-0.200526
	-0.205036
	-0.199238
	-0.200526
	-0.198271
	-0.128370
	-0.025933
	0.018843
	0.030439
	0.043324
	0.043002
	0.091643
	0.146083
	0.131909
	0.128366
	0.144795
	0.180873
	0.188926
	0.196335
	0.217273
	0.240144
	0.253674
	0.254962
	0.258828
	0.252707
	0.255284
	0.254962
	0.269458
	0.296839
	0.305214
	0.309724
	0.310046
	0.301671
	0.262693
	0.240789
	0.260116
	0.286853
	0.301027
	0.303604
	0.305214
	0.305859
	0.302315
	0.304570
	0.299738
	0.300704
	0.299094
	0.295550
	0.297483
	0.295873
	0.298127
	0.294906
	0.295873
	0.284920
	0.241111
	0.227904
	0.121601
	-0.011760
	-0.069742
	-0.092936
	-0.098090
	-0.106787
	-0.122894
	-0.150919
	-0.158650
	-0.165736
	-0.167669
	-0.169280
	-0.190540
	-0.210512
	-0.222431
	-0.222431
	-0.225330
	-0.232095
	-0.304895
	-0.373508
	-0.374797
	-0.359013
	-0.346772
	-0.342584
	-0.338719
	-0.338074
	-0.340007
	-0.334853
	-0.339041
	-0.336142
	-0.336786
	-0.337430
	-0.333565
	-0.333565
	-0.328411
	-0.332920
	-0.326800
	-0.338074
	-0.372864
	-0.385105
	-0.371576
	-0.340007
	-0.331954
	-0.322290
	-0.323579
	-0.319069
	-0.318103
	-0.316814
	-0.316170
	-0.317780
	-0.202459
	-0.055891
	0.011434
	0.035915
	0.050733
	0.053632
	0.052988
	0.045901
	0.004669
	-0.007250
	0.004991
	0.035271
	0.048800
	0.053310
	0.101952
	0.160901
	0.192792
	0.199878
	0.205032
	0.205355
	0.203422
	0.204066
	0.201167
	0.204388
	0.200845
	0.203744
	0.202133
	0.190859
	0.154136
	0.133520
	0.152526
	0.178296
	0.192792
	0.197301
	0.196979
	0.201167
	0.197301
	0.200201
	0.196335
	0.195369
	0.195046
	0.191503
	0.194080
	0.191503
	0.194724
	0.193114
	0.192147
	0.183772
	0.139318
	0.127077
	0.090355
	0.059753
	0.046546
	0.038814
	0.039459
	0.033660
	0.038492
	0.035915
	0.036560
	0.035915
	0.078114
	0.144150
	0.167988
	0.181195
	0.184416
	0.186993
	0.189248
	0.173464
	0.138352
	0.118702
	0.153814
	0.209220
	0.230803
	0.241111
	0.241755
	0.246909
	0.245621
	0.243688
	0.245298
	0.240467
	0.241111
	0.236601
	0.239822
	0.236923
	0.239822
	0.240789
	0.234668
	0.227581
	0.186027
	0.170887
	0.183128
	0.213408
	0.228226
	0.228226
	0.234668
	0.232091
	0.233380
	0.234668
	0.230158
	0.229836
	0.156713
	0.073282
	0.034627
	0.021097
	0.018198
	0.013044
	0.013366
	0.000159
	-0.033342
	-0.054925
	0.005635
	0.101952
	0.136741
	0.154136
	0.158002
	0.164444
	0.161223
	0.162834
	0.162189
	0.158002
	0.179584
	0.201489
	0.214374
	0.216951
	0.219528
	0.220495
	0.216951
	0.211475
	0.169276
	0.152848
	0.166699
	0.196013
	0.210831
	0.208898
	0.215985
	0.213086
	0.215663
	0.215341
	0.210831
	0.213086
	0.207932
	0.209542
	0.205355
	0.208576
	0.209864
	0.206643
	0.209542
	0.198268
	0.159935
	0.138030
	0.051377
	-0.056857
	-0.103888
	-0.117417
	-0.129980
	-0.129014
	-0.151885
	-0.174434
	-0.185708
	-0.189252
	-0.190862
	-0.197627
	-0.209224
	-0.236604
	-0.244336
	-0.246913
	-0.248523
	-0.254644
	-0.333243
	-0.393158
	-0.402178
	-0.379951
	-0.370609
	-0.368677
	-0.361590
	-0.363523
	-0.361590
	-0.358046
	-0.359013
	-0.358046
	-0.362234
	-0.357402
	-0.359335
	-0.354825
	-0.353214
	-0.353214
	-0.350637
	-0.359335
	-0.389293
	-0.410553
	-0.391870
	-0.363523
	-0.350960
	-0.342906
	-0.344195
	-0.338719
	-0.339363
	-0.336464
	-0.339685
	-0.335497
	-0.221464
	-0.073286
	-0.005639
	0.015621
	0.029473
	0.032694
	0.035271
	0.025929
	-0.013048
	-0.026577
	-0.017880
	0.016266
	0.025607
	0.032694
	0.082624
	0.144472
	0.171531
	0.180229
	0.185060
	0.181195
	0.184738
	0.182483
	0.183128
	0.185705
	0.182483
	0.183450
	0.180873
	0.175719
	0.133842
	0.118702
	0.130299
	0.159290
	0.174108
	0.177007
	0.180229
	0.177007
	0.180873
	0.178296
	0.180551
	0.177007
	0.173142
	0.174108
	0.171531
	0.174430
	0.174752
	0.173142
	0.175397
	0.162189
	0.125789
	0.105173
	0.073282
	0.037848
	0.028184
	0.026252
	0.021742
	0.021420
	0.066517
	0.130621
	0.151559
	0.164444
	0.165733
	0.163156
	0.167666
	0.163156
	0.187315
	0.208898
	0.224682
	0.218562
	0.183450
	0.163800
	0.173786
	0.206643
	0.235957
	0.269780
	0.277189
	0.285242
	0.285242
	0.285242
	0.283632
	0.282021
	0.281055
	0.276223
	0.279444
	0.274934
	0.278800
	0.276223
	0.277189
	0.267847
	0.229514
	0.211153
	0.217918
	0.252063
	0.262371
	0.270424
	0.268492
	0.271713
	0.270102
	0.268814
	0.268814
	0.264948
	0.138352
	-0.027544
	-0.088748
	-0.118062
	-0.126115
	-0.127403
	-0.132235
	-0.138356
	-0.176367
	-0.191185
	-0.184420
	-0.151241
	-0.136423
	-0.132557
	-0.129014
	-0.129658
	-0.145120
	-0.174756
	-0.181521
	-0.186997
	-0.187641
	-0.190218
	-0.187963
	-0.186675
	-0.187641
	-0.183776
	-0.187319
	-0.191185
	-0.227907
	-0.243691
	-0.233705
	-0.203425
	-0.187641
	-0.186030
	-0.178944
	-0.179910
	-0.175722
	-0.178299
	-0.176689
	-0.176367
	-0.180232
	-0.175078
	-0.177333
	-0.175078
	-0.177333
	-0.172823
	-0.174756
	-0.181521
	-0.215666
	-0.235316
	-0.161227
	-0.059757
	-0.011437
	0.001770
	0.012078
	0.015943
	0.064585
	0.127722
	0.150593
	0.161223
	0.159612
	0.166699
	0.188282
	0.210186
	0.223072
	0.224360
	0.227259
	0.215985
	0.201167
	0.202133
	0.223394
	0.260116
	0.272035
	0.280088
	0.280410
	0.284598
	0.280088
	0.282987
	0.281055
	0.276867
	0.276545
	0.274290
	0.276545
	0.271069
	0.276545
	0.273968
	0.274290
	0.265915
	0.225004
	0.205032
	0.213086
	0.248520
	0.258184
	0.267203
	0.268492
	0.269780
	0.269780
	0.266881
	0.268492
	0.260761
	0.130621
	-0.029799
	-0.096479
	-0.120317
	-0.131591
	-0.132235
	-0.137711
	-0.142865
	-0.199238
	-0.240470
	-0.239504
	-0.216633
	-0.201815
	-0.200204
	-0.193117
	-0.194084
	-0.213089
	-0.234672
	-0.247879
	-0.249490
	-0.255288
	-0.251422
	-0.253033
	-0.251100
	-0.246913
	-0.246268
	-0.246913
	-0.256576
	-0.287823
	-0.308439
	-0.293943
	-0.262697
	-0.250778
	-0.243369
	-0.242725
	-0.238859
	-0.242081
	-0.235638
	-0.238859
	-0.237249
	-0.234672
	-0.236282
	-0.233383
	-0.236927
	-0.232095
	-0.235638
	-0.230484
	-0.239504
	-0.274615
	-0.291044
	-0.238859
	-0.158328
	-0.127403
	-0.110331
	-0.108720
	-0.100345
	-0.101955
	-0.101633
	-0.100667
	-0.103888
	-0.122571
	-0.152207
	-0.157039
	-0.162837
	-0.161871
	-0.161871
	-0.161227
	-0.166703
	-0.205358
	-0.218887
	-0.232417
	-0.221142
	-0.219532
	-0.216955
	-0.216955
	-0.216633
	-0.214056
	-0.217921
	-0.213089
	-0.216633
	-0.214378
	-0.216633
	-0.213089
	-0.211801
	-0.213411
	-0.208579
	-0.210190
	-0.212767
	-0.252389
	-0.265918
	-0.258187
	-0.228551
	-0.210834
	-0.208579
	-0.204070
	-0.203425
	-0.201170
	-0.199560
	-0.202781
	-0.198593
	-0.163482
	-0.110008
	-0.091647
	-0.079406
	-0.074897
	-0.075219
	-0.073930
	-0.084882
	-0.137389
	-0.182165
	-0.180554
	-0.152851
	-0.141899
	-0.135456
	-0.136101
	-0.131269
	-0.155106
	-0.175722
	-0.184742
	-0.189896
	-0.189574
	-0.193439
	-0.188285
	-0.194406
	-0.186675
	-0.187319
	-0.187641
	-0.194406
	-0.227907
	-0.246268
	-0.238859
	-0.204070
	-0.193439
	-0.185064
	-0.182809
	-0.178944
	-0.180232
	-0.180876
	-0.178944
	-0.184098
	-0.181843
	-0.185064
	-0.180876
	-0.180554
	-0.177655
	-0.177011
	-0.178622
	-0.181521
	-0.222431
	-0.235638
	-0.144798
	-0.014981
	0.037848
	0.058786
	0.069739
	0.070061
	0.126111
	0.182161
	0.210186
	0.216629
	0.221139
	0.219528
	0.240144
	0.267203
	0.273968
	0.280733
	0.278800
	0.274934
	0.254318
	0.260438
	0.278800
	0.311979
	0.330018
	0.332273
	0.336139
	0.333239
	0.336139
	0.332273
	0.334850
	0.332917
	0.327441
	0.328085
	0.324542
	0.328085
	0.325186
	0.328407
	0.326153
	0.315522
	0.279122
	0.254318
	0.266881
	0.295550
	0.312945
	0.314878
	0.318099
	0.318744
	0.312945
	0.317777
	0.312945
	0.314234
	0.173464
	0.018843
	-0.045583
	-0.072642
	-0.078118
	-0.086171
	-0.085205
	-0.095513
	-0.129014
	-0.151563
	-0.137389
	-0.106787
	-0.096157
	-0.084238
	-0.087137
	-0.082950
	-0.106465
	-0.126115
	-0.139000
	-0.144154
	-0.144476
	-0.148986
	-0.146731
	-0.148019
	-0.142543
	-0.144154
	-0.142221
	-0.148019
	-0.186353
	-0.200526
	-0.193117
	-0.159616
	-0.149308
	-0.139644
	-0.139000
	-0.139966
	-0.135134
	-0.139322
	-0.136745
	-0.139644
	-0.136745
	-0.139000
	-0.138356
	-0.134812
	-0.134490
	-0.132235
	-0.134490
	-0.139000
	-0.178944
	-0.192795
	-0.163482
	-0.108720
	-0.081339
	-0.077796
	-0.070065
	-0.068776
	-0.065877
	-0.065877
	-0.067165
	-0.065233
	-0.091325
	-0.112908
	-0.124504
	-0.126759
	-0.126437
	-0.126437
	-0.127081
	-0.136101
	-0.166381
	-0.190218
	-0.196983
	-0.189896
	-0.186997
	-0.184098
	-0.183776
	-0.178299
	-0.183453
	-0.178622
	-0.182165
	-0.180554
	-0.182165
	-0.183131
	-0.180232
	-0.182809
	-0.177977
	-0.180232
	-0.177011
	-0.182487
	-0.217921
	-0.235638
	-0.228873
	-0.195372
	-0.185064
	-0.174112
	-0.174434
	-0.171857
	-0.168958
	-0.173468
	-0.169280
	-0.172179
	-0.084882
	0.007568
	0.047834
	0.065551
	0.067806
	0.075215
	0.126111
	0.182483
	0.167988
	0.157358
	0.172175
	0.201167
	0.219850
	0.222105
	0.247875
	0.272679
	0.281055
	0.284276
	0.283632
	0.285564
	0.280088
	0.282665
	0.304248
	0.322609
	0.335816
	0.336783
	0.338716
	0.330340
	0.294906
	0.272357
	0.278155
	0.313590
	0.323898
	0.331629
	0.331629
	0.331951
	0.331307
	0.330018
	0.331951
	0.326153
	0.327763
	0.323898
	0.322287
	0.322931
	0.320676
	0.323253
	0.317133
	0.314878
	0.272679
	0.253996
	0.124178
	0.001126
	-0.046227
	-0.069742
	-0.072964
	-0.079084
	-0.100667
	-0.128692
	-0.135134
	-0.140933
	-0.146409
	-0.142221
	-0.166059
	-0.187319
	-0.198271
	-0.197627
	-0.199560
	-0.207935
	-0.281702
	-0.350315
	-0.358368
	-0.338074
	-0.322612
	-0.319713
	-0.317780
	-0.313593
	-0.317780
	-0.313271
	-0.314559
	-0.311660
	-0.313271
	-0.314559
	-0.310049
	-0.313593
	-0.305862
	-0.307795
	-0.304251
	-0.310694
	-0.343229
	-0.361268
	-0.355791
	-0.321324
	-0.309727
	-0.301030
	-0.298775
	-0.297164
	-0.295554
	-0.296198
	-0.292010
	-0.296842
	-0.165092
	-0.020779
	0.038492
	0.062330
	0.070383
	0.080047
	0.075537
	0.071027
	0.035271
	0.013689
	0.023030
	0.051377
	0.069417
	0.069417
	0.129977
	0.187960
	0.212119
	0.224360
	0.225326
	0.226293
	0.222427
	0.225004
	0.223394
	0.222749
	0.227259
	0.225004
	0.225004
	0.214052
	0.179906
	0.153492
	0.166377
	0.196335
	0.209542
	0.217273
	0.217918
	0.219528
	0.215985
	0.219850
	0.213408
	0.216307
	0.212119
	0.212441
	0.215018
	0.213086
	0.214374
	0.211153
	0.213408
	0.202778
	0.165089
	0.145761
	0.098730
	0.071672
	0.061686
	0.059431
	0.055887
	0.057820
	0.055565
	0.057176
	0.055243
	0.054921
	0.105817
	0.164444
	0.192469
	0.196979
	0.203744
	0.203744
	0.205355
	0.194402
	0.158968
	0.139640
	0.164766
	0.224360
	0.244976
	0.256895
	0.257861
	0.264304
	0.261727
	0.259472
	0.261727
	0.256251
	0.254640
	0.252385
	0.258184
	0.251741
	0.254318
	0.255607
	0.251741
	0.247553
	0.206321
	0.186027
	0.190859
	0.227259
	0.238534
	0.244654
	0.248520
	0.244654
	0.247553
	0.243688
	0.244976
	0.240144
	0.120957
	-0.010471
	-0.086171
	-0.129014
	-0.170246
	-0.196661
	-0.211479
	-0.218565
	-0.300064
	-0.368032
	-0.397990
	-0.402178
	-0.419573
	-0.445665
	-0.447598
	-0.455007
	-0.342584
	-0.225652
	-0.015625
	0.182161
	0.409584
	0.608015
	0.815466
	0.991671
	1.168520
	1.320243
	1.506435
	1.664923
	1.836942
	1.995431
	2.209327
	2.415170
	2.612960
	2.757921
	2.949591
	3.110659
	3.281391
	3.419910
	3.620602
	3.800677
	3.715633
	3.578402
	3.385441
	3.215031
	3.005320
	2.827502
	2.636476
	2.472187
	2.209971
	1.981579
	1.777669
	1.635609
	1.448451
	1.278044
	1.094108
	0.945284
	0.725270
	0.535536
	0.342581
	0.192469
	-0.037852
	-0.238215
	-0.429236
	-0.584502
	-0.641840
	-0.668577
	-0.654403
	-0.639907
	-0.641196
	-0.632821
	-0.573871
	-0.485287
	-0.454362
	-0.436001
	-0.406043
	-0.380273
	-0.346128
	-0.320035
	-0.261408
	-0.212445
	-0.188930
	-0.181521
	-0.177655
	-0.172823
	-0.174756
	-0.170246
	-0.172823
	-0.172501
	-0.208902
	-0.231128
	-0.220498
	-0.191829
	-0.174756
	-0.172179
	-0.165092
	-0.166703
	-0.164448
	-0.162193
	-0.165092
	-0.161871
	-0.166381
	-0.163482
	-0.164126
	-0.162837
	-0.158972
	-0.161871
	-0.157683
	-0.162837
	-0.194406
	-0.221464
	-0.211156
	-0.180232
	-0.165736
	-0.156073
	-0.101311
	-0.039463
	-0.019491
	-0.004995
	-0.003062
	-0.001451
	-0.001774
	-0.004673
	0.000803
	-0.001129
	0.003380
	-0.001129
	0.001448
	-0.003706
	-0.041073
	-0.062656
	-0.056535
	-0.021745
	-0.010149
	-0.000163
	0.001770
	-0.000163
	0.002736
	0.000159
	0.003380
	-0.000163
	0.000803
	-0.000485
	-0.002096
	0.003380
	-0.001129
	0.002414
	0.001448
	-0.002418
	-0.039463
	-0.064588
	-0.108720
	-0.138034
	-0.142865
	-0.146409
	-0.148019
	-0.146731
	-0.148664
	-0.147053
	-0.151241
	-0.148342
	-0.094224
	-0.036241
	-0.010149
	-0.001451
	0.005635
	0.003380
	0.007568
	0.002092
	-0.034308
	-0.055891
	-0.026577
	0.031406
	0.051377
	0.066195
	0.066517
	0.069739
	0.067484
	0.071672
	0.071027
	0.067484
	0.069094
	0.064263
	0.066840
	0.063618
	0.071672
	0.071027
	0.067484
	0.063940
	0.025285
	0.003703
	0.005635
	0.043324
	0.056532
	0.062974
	0.066840
	0.065551
	0.067806
	0.065551
	0.067162
	0.064263
	-0.059112
	-0.184742
	-0.240792
	-0.257865
	-0.268173
	-0.265918
	-0.270750
	-0.273005
	-0.329377
	-0.377052
	-0.375441
	-0.350960
	-0.332276
	-0.330343
	-0.324867
	-0.318747
	-0.344517
	-0.365133
	-0.375441
	-0.375441
	-0.381240
	-0.377374
	-0.375441
	-0.376085
	-0.372864
	-0.373186
	-0.370609
	-0.377052
	-0.406688
	-0.429236
	-0.424082
	-0.388326
	-0.376085
	-0.366422
	-0.366100
	-0.360946
	-0.360301
	-0.357080
	-0.355469
	-0.357724
	-0.355791
	-0.359013
	-0.352248
	-0.354503
	-0.352570
	-0.348060
	-0.351604
	-0.353859
	-0.389615
	-0.407010
	-0.310694
	-0.187641
	-0.129980
	-0.112585
	-0.100667
	-0.097123
	-0.038496
	0.020453
	0.041714
	0.053632
	0.051055
	0.058142
	0.080691
	0.104529
	0.115159
	0.116447
	0.119669
	0.111293
	0.100663
	0.098408
	0.111937
	0.150593
	0.164766
	0.174108
	0.175397
	0.178940
	0.177974
	0.176041
	0.177329
	0.173464
	0.174108
	0.172820
	0.174752
	0.173142
	0.172175
	0.177007
	0.169598
	0.166699
	0.127400
	0.102596
	0.108716
	0.139640
	0.157680
	0.161223
	0.167666
	0.167988
	0.165411
	0.165733
	0.162189
	0.164122
	0.010789
	-0.134168
	-0.193439
	-0.223075
	-0.226941
	-0.234350
	-0.231773
	-0.236927
	-0.270750
	-0.292977
	-0.311338
	-0.299419
	-0.297486
	-0.291044
	-0.290722
	-0.288145
	-0.288145
	-0.288145
	-0.286212
	-0.289755
	-0.307795
	-0.333565
	-0.340652
	-0.340329
	-0.342906
	-0.338074
	-0.341940
	-0.341940
	-0.376730
	-0.397346
	-0.390259
	-0.360946
	-0.340974
	-0.337430
	-0.331310
	-0.330988
	-0.328411
	-0.327444
	-0.328411
	-0.323257
	-0.330343
	-0.326800
	-0.325834
	-0.323579
	-0.322935
	-0.322612
	-0.319069
	-0.326156
	-0.356436
	-0.378985
	-0.324545
	-0.247879
	-0.210834
	-0.198271
	-0.194728
	-0.184420
	-0.187963
	-0.184742
	-0.186675
	-0.185064
	-0.187963
	-0.189896
	-0.185064
	-0.189252
	-0.183776
	-0.183453
	-0.205680
	-0.232417
	-0.276548
	-0.299419
	-0.299741
	-0.263663
	-0.251100
	-0.243047
	-0.240148
	-0.235638
	-0.236604
	-0.238215
	-0.233383
	-0.237893
	-0.235638
	-0.238215
	-0.231773
	-0.233383
	-0.231773
	-0.228229
	-0.233383
	-0.233383
	-0.269461
	-0.288467
	-0.286212
	-0.250134
	-0.234672
	-0.229518
	-0.225974
	-0.225008
	-0.221787
	-0.224686
	-0.219854
	-0.221787
	-0.151885
	-0.083916
	-0.053314
	-0.042362
	-0.041395
	-0.033664
	0.021097
	0.077470
	0.062008
	0.050733
	0.056532
	0.090355
	0.110649
	0.110971
	0.142217
	0.165411
	0.175075
	0.177652
	0.178940
	0.181517
	0.175397
	0.177007
	0.197946
	0.221461
	0.228548
	0.233702
	0.234024
	0.228226
	0.194724
	0.166699
	0.172820
	0.203744
	0.223072
	0.228226
	0.229514
	0.232091
	0.227581
	0.229836
	0.226937
	0.227581
	0.225326
	0.221783
	0.225004
	0.220172
	0.223394
	0.221139
	0.223716
	0.216951
	0.178940
	0.156713
	0.008212
	-0.103566
	-0.150919
	-0.164126
	-0.173790
	-0.172823
	-0.197949
	-0.224041
	-0.230806
	-0.238537
	-0.237571
	-0.241758
	-0.261086
	-0.282347
	-0.290400
	-0.291044
	-0.294587
	-0.295876
	-0.379307
	-0.440511
	-0.457261
	-0.429881
	-0.415707
	-0.412164
	-0.407010
	-0.406688
	-0.403144
	-0.405077
	-0.401534
	-0.401534
	-0.399601
	-0.399279
	-0.397346
	-0.395735
	-0.398956
	-0.393480
	-0.397024
	-0.394447
	-0.427304
	-0.448886
	-0.444699
	-0.413452
	-0.394447
	-0.390903
	-0.382850
	-0.384783
	-0.379629
	-0.378662
	-0.378662
	-0.378018
	-0.286212
	-0.192151
	-0.158972
	-0.139644
	-0.133846
	-0.129980
	-0.129980
	-0.132235
	-0.187963
	-0.237249
	-0.239181
	-0.211479
	-0.195050
	-0.188930
	-0.186353
	-0.183776
	-0.209868
	-0.226941
	-0.239826
	-0.239826
	-0.243369
	-0.243047
	-0.240792
	-0.243047
	-0.237893
	-0.239826
	-0.237893
	-0.238859
	-0.275904
	-0.295554
	-0.293943
	-0.259475
	-0.247557
	-0.235316
	-0.234672
	-0.230484
	-0.228229
	-0.230484
	-0.228229
	-0.228551
	-0.228229
	-0.233383
	-0.225974
	-0.227263
	-0.223719
	-0.223719
	-0.223075
	-0.226941
	-0.263341
	-0.281380
	-0.186997
	-0.060723
	-0.011437
	0.013044
	0.018520
	0.025607
	0.085523
	0.139963
	0.165733
	0.170565
	0.174752
	0.172498
	0.202455
	0.223072
	0.232735
	0.237889
	0.234024
	0.232735
	0.217595
	0.216629
	0.226293
	0.265270
	0.283310
	0.287175
	0.292329
	0.291041
	0.292973
	0.289430
	0.289108
	0.288141
	0.282021
	0.284920
	0.281377
	0.282665
	0.282343
	0.283310
	0.282021
	0.274934
	0.242399
	0.213730
	0.215985
	0.249164
	0.267847
	0.272035
	0.273646
	0.275901
	0.270747
	0.275256
	0.271713
	0.270747
	0.114192
	-0.032698
	-0.088748
	-0.116451
	-0.120317
	-0.124182
	-0.125471
	-0.130625
	-0.163804
	-0.187319
	-0.186675
	-0.150274
	-0.139000
	-0.128370
	-0.125793
	-0.121927
	-0.150596
	-0.167025
	-0.177977
	-0.179588
	-0.182487
	-0.182809
	-0.180876
	-0.185064
	-0.182165
	-0.185064
	-0.180876
	-0.185064
	-0.218887
	-0.240470
	-0.238215
	-0.204392
	-0.191507
	-0.179910
	-0.180876
	-0.173468
	-0.173145
	-0.175722
	-0.172179
	-0.175722
	-0.174112
	-0.177333
	-0.170568
	-0.172179
	-0.171213
	-0.169280
	-0.173468
	-0.172823
	-0.208579
	-0.228551
	-0.206969
	-0.143510
	-0.121927
	-0.111619
	-0.105499
	-0.103566
	-0.101633
	-0.104532
	-0.100667
	-0.105177
	-0.128048
	-0.150919
	-0.157039
	-0.160905
	-0.161549
	-0.158328
	-0.164126
	-0.161227
	-0.199238
	-0.219532
	-0.244336
	-0.230484
	-0.223719
	-0.221142
	-0.215344
	-0.218565
	-0.214700
	-0.216955
	-0.213411
	-0.216955
	-0.214700
	-0.215022
	-0.213411
	-0.210834
	-0.213089
	-0.209546
	-0.212767
	-0.211479
	-0.248523
	-0.269139
	-0.267529
	-0.233383
	-0.216310
	-0.211479
	-0.204714
	-0.206647
	-0.202781
	-0.202781
	-0.201815
	-0.202137
	-0.107754
	-0.014981
	0.017876
	0.034627
	0.038492
	0.044291
	0.104206
	0.158002
	0.145439
	0.126111
	0.133520
	0.165733
	0.186671
	0.188604
	0.220172
	0.244010
	0.251419
	0.257217
	0.253030
	0.254640
	0.250130
	0.251741
	0.273968
	0.297161
	0.304892
	0.306181
	0.309724
	0.303604
	0.269780
	0.241755
	0.246587
	0.277189
	0.292973
	0.301349
	0.299416
	0.303926
	0.299416
	0.301349
	0.297483
	0.299094
	0.297161
	0.293618
	0.295873
	0.291685
	0.294262
	0.292973
	0.295228
	0.290074
	0.251741
	0.227904
	0.066840
	-0.040429
	-0.084238
	-0.097123
	-0.106143
	-0.107431
	-0.130625
	-0.158650
	-0.165414
	-0.171857
	-0.170246
	-0.171535
	-0.193762
	-0.213411
	-0.225652
	-0.224041
	-0.228229
	-0.228229
	-0.311982
	-0.377052
	-0.391870
	-0.370609
	-0.351604
	-0.349349
	-0.344195
	-0.340974
	-0.340329
	-0.338397
	-0.341296
	-0.335820
	-0.342584
	-0.337752
	-0.337108
	-0.334209
	-0.333243
	-0.332920
	-0.330343
	-0.335497
	-0.363523
	-0.388971
	-0.384139
	-0.353537
	-0.333565
	-0.327444
	-0.324545
	-0.319713
	-0.321324
	-0.319069
	-0.321968
	-0.317780
	-0.174756
	-0.039140
	0.014333
	0.035271
	0.044613
	0.051055
	0.052022
	0.047190
	0.016266
	-0.011437
	-0.007894
	0.024319
	0.041069
	0.048156
	0.108716
	0.170243
	0.186993
	0.198590
	0.202455
	0.200845
	0.201811
	0.199556
	0.205999
	0.199556
	0.202778
	0.199234
	0.199878
	0.195046
	0.160901
	0.134809
	0.133198
	0.169276
	0.182483
	0.192469
	0.192469
	0.196657
	0.194080
	0.194724
	0.195046
	0.189892
	0.191181
	0.187638
	0.188926
	0.186671
	0.191181
	0.189570
	0.185705
	0.187315
	0.147694
	0.124178
	0.060719
	0.042358
	0.036237
	0.034949
	0.034949
	0.033016
	0.035593
	0.031406
	0.034949
	0.029473
	0.091966
	0.147049
	0.167021
	0.179584
	0.180229
	0.184416
	0.181839
	0.180229
	0.147372
	0.117414
	0.146405
	0.197946
	0.225004
	0.234668
	0.240467
	0.241111
	0.238856
	0.242399
	0.236601
	0.239500
	0.234346
	0.235635
	0.233702
	0.232735
	0.236601
	0.232413
	0.234990
	0.231125
	0.196013
	0.167988
	0.165733
	0.201811
	0.215341
	0.226615
	0.224360
	0.228226
	0.227581
	0.226937
	0.225326
	0.223072
	0.136097
	0.054921
	0.029151
	0.013366
	0.011112
	0.008534
	0.006602
	0.005635
	-0.030765
	-0.052025
	0.005957
	0.094865
	0.134809
	0.148982
	0.155103
	0.158646
	0.162189
	0.156713
	0.159290
	0.158646
	0.180873
	0.203100
	0.209542
	0.214696
	0.213730
	0.218562
	0.215663
	0.212764
	0.180229
	0.151237
	0.151237
	0.181517
	0.202778
	0.207609
	0.211797
	0.215985
	0.210186
	0.212441
	0.208576
	0.211475
	0.206321
	0.208254
	0.210186
	0.208576
	0.209220
	0.207932
	0.205999
	0.199878
	0.168954
	0.140285
	0.002414
	-0.083594
	-0.115807
	-0.125793
	-0.133846
	-0.131591
	-0.161871
	-0.179588
	-0.188285
	-0.193762
	-0.196339
	-0.197627
	-0.218565
	-0.243369
	-0.247235
	-0.250134
	-0.251744
	-0.251100
	-0.336142
	-0.398956
	-0.420539
	-0.391548
	-0.376730
	-0.373508
	-0.366422
	-0.368032
	-0.363523
	-0.364489
	-0.359335
	-0.361268
	-0.365133
	-0.361590
	-0.362878
	-0.357724
	-0.357402
	-0.353537
	-0.355147
	-0.356436
	-0.382528
	-0.410875
	-0.407332
	-0.377374
	-0.354503
	-0.351282
	-0.342906
	-0.340329
	-0.343229
	-0.338397
	-0.341940
	-0.337430
	-0.190218
	-0.055891
	-0.005317
	0.018198
	0.026252
	0.030117
	0.031406
	0.027540
	-0.001451
	-0.033020
	-0.030121
	0.001770
	0.020131
	0.028184
	0.094220
	0.150271
	0.168954
	0.180551
	0.180551
	0.184094
	0.179262
	0.181517
	0.182483
	0.180229
	0.183772
	0.178618
	0.180873
	0.176363
	0.144150
	0.116447
	0.112904
	0.149949
	0.162512
	0.173464
	0.175397
	0.178618
	0.176685
	0.175075
	0.177652
	0.171853
	0.173786
	0.171853
	0.174752
	0.173786
	0.171853
	0.174752
	0.166055
	0.169920
	0.133520
	0.107428
	0.040747
	0.021420
	0.018843
	0.014333
	0.018520
	0.014655
	0.081335
	0.131587
	0.157035
	0.162189
	0.160257
	0.164766
	0.163156
	0.166377
	0.190215
	0.214374
	0.220172
	0.220817
	0.190859
	0.158324
	0.159290
	0.190859
	0.236923
	0.263982
	0.273646
	0.279766
	0.276867
	0.282021
	0.279444
	0.278800
	0.276223
	0.273001
	0.275901
	0.270424
	0.274612
	0.271713
	0.271713
	0.269780
	0.233702
	0.207287
	0.202133
	0.240144
	0.254962
	0.263015
	0.266237
	0.264948
	0.266559
	0.263338
	0.265592
	0.262693
	0.093576
	-0.042684
	-0.101311
	-0.120639
	-0.131269
	-0.132557
	-0.136423
	-0.135779
	-0.168636
	-0.198271
	-0.195694
	-0.165736
	-0.145765
	-0.137711
	-0.133202
	-0.131591
	-0.158328
	-0.176689
	-0.188930
	-0.189896
	-0.190862
	-0.195694
	-0.190862
	-0.193117
	-0.188607
	-0.189896
	-0.188930
	-0.189574
	-0.223719
	-0.245946
	-0.249490
	-0.214056
	-0.197949
	-0.188930
	-0.185064
	-0.186353
	-0.180554
	-0.183776
	-0.180554
	-0.181199
	-0.182809
	-0.182809
	-0.186030
	-0.181521
	-0.183776
	-0.177977
	-0.177333
	-0.177977
	-0.210512
	-0.237249
	-0.157361
	-0.064911
	-0.017880
	-0.001129
	0.005957
	0.008857
	0.072960
	0.129010
	0.146083
	0.159612
	0.158002
	0.158002
	0.186993
	0.206965
	0.217595
	0.218884
	0.225326
	0.218884
	0.212764
	0.206321
	0.207287
	0.247875
	0.264948
	0.274612
	0.273646
	0.277833
	0.277511
	0.274290
	0.276545
	0.272679
	0.272035
	0.269136
	0.270102
	0.269458
	0.266881
	0.271713
	0.266881
	0.267847
	0.232091
	0.205032
	0.201167
	0.232413
	0.253352
	0.255607
	0.262693
	0.265270
	0.263660
	0.263338
	0.258506
	0.260761
	0.085845
	-0.048804
	-0.105177
	-0.129014
	-0.133846
	-0.140933
	-0.138356
	-0.143510
	-0.196339
	-0.244658
	-0.257221
	-0.220820
	-0.211156
	-0.201170
	-0.202137
	-0.196016
	-0.224686
	-0.242403
	-0.248845
	-0.255288
	-0.254966
	-0.259153
	-0.253999
	-0.256898
	-0.251744
	-0.249812
	-0.253033
	-0.249490
	-0.281380
	-0.306506
	-0.309083
	-0.274293
	-0.256254
	-0.249490
	-0.243691
	-0.245624
	-0.239826
	-0.241114
	-0.239181
	-0.239504
	-0.241114
	-0.240148
	-0.242403
	-0.235960
	-0.238859
	-0.236282
	-0.234027
	-0.236604
	-0.266562
	-0.293943
	-0.240148
	-0.168313
	-0.129980
	-0.114518
	-0.113552
	-0.105499
	-0.105821
	-0.104854
	-0.103566
	-0.103566
	-0.130947
	-0.155751
	-0.158650
	-0.165092
	-0.163482
	-0.159616
	-0.164126
	-0.164448
	-0.195050
	-0.220176
	-0.250778
	-0.237571
	-0.226619
	-0.226296
	-0.216310
	-0.218887
	-0.217599
	-0.215988
	-0.218243
	-0.217277
	-0.221142
	-0.217921
	-0.219854
	-0.217277
	-0.214056
	-0.215344
	-0.211801
	-0.215022
	-0.242081
	-0.268817
	-0.270106
	-0.236604
	-0.222109
	-0.208902
	-0.208257
	-0.202781
	-0.200204
	-0.202459
	-0.201815
	-0.203747
	-0.147697
	-0.110331
	-0.117095
	-0.131269
	-0.165092
	-0.181521
	-0.194728
	-0.197627
	-0.279769
	-0.347416
	-0.393480
	-0.394769
	-0.409265
	-0.429559
	-0.432780
	-0.435035
	-0.303285
	-0.195694
	0.040425
	0.217273
	0.466923
	0.643449
	0.871839
	1.025817
	1.218450
	1.348913
	1.557654
	1.697137
	1.901690
	2.034731
	2.247016
	2.437397
	2.648717
	2.788846
	2.994046
	3.142228
	3.325202
	3.447292
	3.673755
	3.831602
	3.711767
	3.582912
	3.372234
	3.217930
	2.988569
	2.829757
	2.623913
	2.484751
	2.197730
	1.988988
	1.751577
	1.627878
	1.427835
	1.276434
	1.082833
	0.944318
	0.709486
	0.534892
	0.333562
	0.196979
	-0.058468
	-0.237249
	-0.445665
	-0.574193
	-0.633143
	-0.655047
	-0.636042
	-0.621546
	-0.611560
	-0.614781
	-0.552289
	-0.477233
	-0.438578
	-0.420539
	-0.389937
	-0.362878
	-0.328411
	-0.299741
	-0.239181
	-0.190862
	-0.173468
	-0.169602
	-0.162837
	-0.163482
	-0.157683
	-0.158005
	-0.154462
	-0.155428
	-0.187641
	-0.212123
	-0.219532
	-0.185064
	-0.166381
	-0.155428
	-0.153496
	-0.154462
	-0.148986
	-0.152529
	-0.149308
	-0.148019
	-0.150919
	-0.151563
	-0.152851
	-0.149308
	-0.152529
	-0.145120
	-0.144798
	-0.146731
	-0.175722
	-0.205680
	-0.206324
	-0.176367
	-0.152207
	-0.145120
	-0.075219
	-0.018846
	-0.002096
	0.008534
	0.011434
	0.012400
	0.012078
	0.007246
	0.012078
	0.009179
	0.012400
	0.012078
	0.012722
	0.012400
	-0.020779
	-0.045583
	-0.054925
	-0.017880
	0.000481
	0.006924
	0.012722
	0.010145
	0.013366
	0.012400
	0.015943
	0.014655
	0.010789
	0.011756
	0.007246
	0.010789
	0.009501
	0.013689
	0.013366
	0.014333
	-0.017236
	-0.049448
	-0.116451
	-0.138678
	-0.138034
	-0.139644
	-0.138356
	-0.136745
	-0.139644
	-0.133846
	-0.139000
	-0.135779
	-0.070387
	-0.019813
	0.002092
	0.008212
	0.014011
	0.013366
	0.018520
	0.016266
	-0.012726
	-0.042040
	-0.019491
	0.034305
	0.061363
	0.075215
	0.076181
	0.080691
	0.080369
	0.080047
	0.082946
	0.081013
	0.080047
	0.073282
	0.077148
	0.072960
	0.076503
	0.076503
	0.077792
	0.077792
	0.045257
	0.018843
	0.010145
	0.046223
	0.065873
	0.074893
	0.076826
	0.076503
	0.077470
	0.074249
	0.079080
	0.073604
	-0.073930
	-0.187963
	-0.234672
	-0.250778
	-0.259475
	-0.257865
	-0.261730
	-0.257543
	-0.316170
	-0.361268
	-0.373508
	-0.347416
	-0.327122
	-0.321002
	-0.313915
	-0.315526
	-0.338074
	-0.358046
	-0.365777
	-0.367066
	-0.369965
	-0.370287
	-0.373186
	-0.368354
	-0.369321
	-0.364167
	-0.362556
	-0.362234
	-0.388648
	-0.415707
	-0.416673
	-0.390581
	-0.366100
	-0.360946
	-0.352570
	-0.351604
	-0.350315
	-0.348705
	-0.349993
	-0.346450
	-0.350960
	-0.347738
	-0.348705
	-0.347416
	-0.345806
	-0.340652
	-0.341618
	-0.340329
	-0.364811
	-0.395735
	-0.288789
	-0.178944
	-0.123538
	-0.104532
	-0.091969
	-0.091647
	-0.021101
	0.033660
	0.051700
	0.061363
	0.059753
	0.063618
	0.087778
	0.113870
	0.121279
	0.122568
	0.127400
	0.124178
	0.123534
	0.111293
	0.117414
	0.149949
	0.171209
	0.182483
	0.180551
	0.184094
	0.181839
	0.184738
	0.181195
	0.183450
	0.180229
	0.176041
	0.179262
	0.175397
	0.178618
	0.175719
	0.180873
	0.177329
	0.148660
	0.119669
	0.108072
	0.143506
	0.160901
	0.172820
	0.173786
	0.177329
	0.176363
	0.171531
	0.176685
	0.172820
	-0.004673
	-0.137067
	-0.191829
	-0.210190
	-0.222431
	-0.220498
	-0.226296
	-0.224686
	-0.250778
	-0.283957
	-0.310372
	-0.301674
	-0.288467
	-0.284279
	-0.280736
	-0.278159
	-0.281702
	-0.276226
	-0.278803
	-0.277192
	-0.303607
	-0.324545
	-0.331954
	-0.337430
	-0.331954
	-0.333565
	-0.330666
	-0.328411
	-0.357080
	-0.383494
	-0.389293
	-0.356114
	-0.340329
	-0.325834
	-0.323257
	-0.323579
	-0.319713
	-0.321324
	-0.316814
	-0.321002
	-0.315848
	-0.320358
	-0.318103
	-0.315526
	-0.316492
	-0.311660
	-0.312949
	-0.310694
	-0.338719
	-0.363200
	-0.314237
	-0.242725
	-0.203425
	-0.193762
	-0.184742
	-0.183131
	-0.179588
	-0.179588
	-0.179588
	-0.176367
	-0.180232
	-0.179588
	-0.181199
	-0.178622
	-0.178944
	-0.173790
	-0.202137
	-0.224041
	-0.255610
	-0.291366
	-0.293621
	-0.265596
	-0.244336
	-0.236282
	-0.233061
	-0.228551
	-0.232417
	-0.226296
	-0.227907
	-0.226619
	-0.227907
	-0.228873
	-0.225974
	-0.229840
	-0.225008
	-0.225652
	-0.222753
	-0.222753
	-0.249812
	-0.275582
	-0.283313
	-0.249812
	-0.233705
	-0.220498
	-0.219854
	-0.217599
	-0.215988
	-0.211479
	-0.210834
	-0.216633
	-0.129658
	-0.073930
	-0.048482
	-0.037208
	-0.033020
	-0.028510
	0.039137
	0.094220
	0.081980
	0.063296
	0.058464
	0.090999
	0.116447
	0.120635
	0.153492
	0.171209
	0.184094
	0.185383
	0.186027
	0.187315
	0.180873
	0.183450
	0.206965
	0.227904
	0.235312
	0.239500
	0.241755
	0.238212
	0.215985
	0.179584
	0.175075
	0.205355
	0.225326
	0.234346
	0.234024
	0.236601
	0.233058
	0.236601
	0.233380
	0.233702
	0.232413
	0.229192
	0.229514
	0.226293
	0.231769
	0.226615
	0.229836
	0.228870
	0.198912
	0.168310
	-0.018202
	-0.116773
	-0.151885
	-0.158972
	-0.168958
	-0.169602
	-0.196016
	-0.220176
	-0.225974
	-0.231773
	-0.231128
	-0.234027
	-0.258187
	-0.280414
	-0.286856
	-0.285246
	-0.288145
	-0.287178
	-0.370609
	-0.431813
	-0.457906
	-0.430847
	-0.414741
	-0.405721
	-0.400245
	-0.402822
	-0.398634
	-0.399923
	-0.395413
	-0.397346
	-0.394447
	-0.395735
	-0.397668
	-0.391870
	-0.394447
	-0.389293
	-0.389615
	-0.384783
	-0.411197
	-0.440511
	-0.441155
	-0.415385
	-0.391870
	-0.383494
	-0.377374
	-0.377052
	-0.375763
	-0.372220
	-0.376408
	-0.370609
	-0.261086
	-0.183453
	-0.149952
	-0.137389
	-0.128370
	-0.127081
	-0.120639
	-0.123216
	-0.174756
	-0.222753
	-0.239504
	-0.211801
	-0.194728
	-0.181843
	-0.182809
	-0.178299
	-0.204714
	-0.225974
	-0.231128
	-0.236604
	-0.236282
	-0.239181
	-0.238215
	-0.233061
	-0.240470
	-0.234027
	-0.234350
	-0.233061
	-0.258831
	-0.286534
	-0.290722
	-0.265274
	-0.240148
	-0.233705
	-0.228229
	-0.227907
	-0.224364
	-0.225008
	-0.225974
	-0.220498
	-0.227585
	-0.225008
	-0.225974
	-0.224041
	-0.222431
	-0.221142
	-0.217921
	-0.221142
	-0.243047
	-0.273005
	-0.165092
	-0.058146
	-0.001451
	0.018843
	0.024963
	0.031406
	0.099052
	0.150915
	0.167021
	0.180873
	0.177652
	0.179906
	0.207932
	0.225326
	0.236601
	0.236923
	0.241755
	0.238212
	0.242077
	0.230158
	0.228226
	0.262049
	0.283310
	0.293296
	0.292007
	0.297161
	0.293618
	0.295873
	0.294584
	0.292007
	0.291363
	0.284276
	0.288141
	0.283954
	0.285242
	0.287497
	0.285887
	0.285564
	0.254962
	0.228870
	0.214052
	0.247553
	0.268492
	0.276545
	0.279444
	0.277189
	0.279444
	0.276223
	0.278800
	0.277833
	0.091643
	-0.038496
	-0.093902
	-0.112585
	-0.123860
	-0.120639
	-0.124826
	-0.122571
	-0.147053
	-0.177977
	-0.183776
	-0.157039
	-0.132557
	-0.128048
	-0.121283
	-0.121283
	-0.146087
	-0.166703
	-0.173790
	-0.175722
	-0.181199
	-0.178299
	-0.184420
	-0.181843
	-0.180232
	-0.176367
	-0.175722
	-0.177655
	-0.197305
	-0.231773
	-0.234672
	-0.206969
	-0.184742
	-0.176367
	-0.173145
	-0.169280
	-0.174756
	-0.169280
	-0.171535
	-0.168636
	-0.172501
	-0.171857
	-0.171535
	-0.172179
	-0.167025
	-0.171213
	-0.166059
	-0.166059
	-0.189896
	-0.221464
	-0.195694
	-0.147697
	-0.120961
	-0.104210
	-0.105177
	-0.099056
	-0.100345
	-0.097768
	-0.097768
	-0.099056
	-0.126759
	-0.152851
	-0.156717
	-0.160582
	-0.160260
	-0.158972
	-0.158972
	-0.156395
	-0.183776
	-0.208257
	-0.245946
	-0.235638
	-0.221142
	-0.216955
	-0.213733
	-0.215666
	-0.210512
	-0.213733
	-0.210190
	-0.208579
	-0.212767
	-0.211801
	-0.215666
	-0.211479
	-0.212445
	-0.206647
	-0.206002
	-0.207613
	-0.228551
	-0.259153
	-0.263663
	-0.238537
	-0.212767
	-0.206969
	-0.201170
	-0.199882
	-0.199238
	-0.198271
	-0.198916
	-0.195050
	-0.087460
	-0.006928
	0.024963
	0.035593
	0.042680
	0.044613
	0.120313
	0.165089
	0.166055
	0.139318
	0.136097
	0.165733
	0.185705
	0.195369
	0.224038
	0.249164
	0.254318
	0.257217
	0.260438
	0.255607
	0.256251
	0.251097
	0.281699
	0.297161
	0.306825
	0.311335
	0.312301
	0.312945
	0.285242
	0.254318
	0.241433
	0.274612
	0.294262
	0.303281
	0.306181
	0.301027
	0.306181
	0.303281
	0.303926
	0.301671
	0.301027
	0.298772
	0.295228
	0.296839
	0.292651
	0.295550
	0.295873
	0.294906
	0.269780
	0.234668
	0.045257
	-0.059757
	-0.084560
	-0.096801
	-0.103888
	-0.105177
	-0.135779
	-0.153818
	-0.164448
	-0.161227
	-0.169280
	-0.169602
	-0.197305
	-0.218243
	-0.221464
	-0.225008
	-0.222431
	-0.225974
	-0.301352
	-0.370609
	-0.393158
	-0.371254
	-0.353537
	-0.342584
	-0.344517
	-0.337108
	-0.340007
	-0.335820
	-0.334853
	-0.332920
	-0.333887
	-0.335175
	-0.334209
	-0.336142
	-0.330343
	-0.332276
	-0.326156
	-0.326478
	-0.347738
	-0.376408
	-0.388004
	-0.355791
	-0.336142
	-0.324223
	-0.321646
	-0.318747
	-0.316170
	-0.317136
	-0.312626
	-0.318747
	-0.140933
	-0.028188
	0.021420
	0.039459
	0.047834
	0.055887
	0.052988
	0.057820
	0.030439
	0.000159
	-0.009183
	0.020131
	0.043646
	0.048156
	0.127077
	0.172175
	0.195046
	0.201811
	0.207287
	0.205032
	0.204710
	0.205032
	0.199878
	0.203100
	0.199234
	0.201811
	0.199556
	0.202455
	0.175075
	0.144795
	0.136419
	0.161223
	0.185383
	0.192147
	0.198590
	0.195046
	0.199556
	0.198590
	0.198912
	0.198268
	0.193114
	0.193758
	0.187638
	0.192792
	0.187960
	0.193114
	0.190859
	0.190859
	0.164122
	0.133198
	0.053310
	0.027218
	0.035915
	0.033660
	0.035915
	0.033983
	0.034305
	0.034949
	0.033016
	0.034949
	0.102274
	0.150915
	0.167021
	0.178296
	0.178940
	0.183772
	0.185060
	0.182161
	0.160257
	0.124500
	0.148016
	0.190215
	0.226937
	0.239178
	0.238856
	0.244010
	0.240467
	0.244010
	0.242077
	0.241433
	0.239822
	0.232735
	0.235957
	0.231769
	0.233702
	0.234990
	0.235957
	0.234668
	0.208254
	0.178296
	0.163800
	0.194080
	0.216951
	0.226615
	0.228226
	0.229836
	0.232091
	0.225326
	0.228870
	0.226293
	0.064585
	-0.043972
	-0.087137
	-0.104532
	-0.114518
	-0.110008
	-0.113230
	-0.112585
	-0.127403
	-0.160582
	-0.199560
	-0.197305
	-0.177977
	-0.175078
	-0.172179
	-0.169924
	-0.171857
	-0.169280
	-0.172179
	-0.165092
	-0.198593
	-0.218887
	-0.225008
	-0.231773
	-0.227907
	-0.228551
	-0.224364
	-0.225008
	-0.244336
	-0.274293
	-0.286534
	-0.257543
	-0.236282
	-0.223075
	-0.221787
	-0.219210
	-0.215988
	-0.219210
	-0.213411
	-0.218565
	-0.215988
	-0.218887
	-0.217599
	-0.215022
	-0.215344
	-0.210512
	-0.213733
	-0.208579
	-0.229518
	-0.260120
	-0.211156
	-0.147375
	-0.104854
	-0.094868
	-0.085849
	-0.083916
	-0.082628
	-0.080373
	-0.081017
	-0.080051
	-0.086815
	-0.084560
	-0.085205
	-0.084882
	-0.083594
	-0.081983
	-0.109364
	-0.132557
	-0.157361
	-0.194728
	-0.201815
	-0.178622
	-0.152851
	-0.143188
	-0.142543
	-0.137389
	-0.138034
	-0.136745
	-0.139000
	-0.134490
	-0.139644
	-0.138678
	-0.137711
	-0.141899
	-0.136101
	-0.137389
	-0.133202
	-0.135456
	-0.154140
	-0.185386
	-0.196339
	-0.167669
	-0.147053
	-0.133524
	-0.132879
	-0.129336
	-0.128692
	-0.130625
	-0.126759
	-0.130625
	-0.038818
	0.014655
	0.039459
	0.048156
	0.049123
	0.055887
	0.053954
	0.058142
	0.033660
	0.003380
	-0.006283
	0.017876
	0.043969
	0.048478
	0.129655
	0.175719
	0.196657
	0.204388
	0.206321
	0.207609
	0.202455
	0.205677
	0.203100
	0.202133
	0.204388
	0.202133
	0.204388
	0.201489
	0.183450
	0.146405
	0.136419
	0.164444
	0.183772
	0.194724
	0.196013
	0.198590
	0.196979
	0.198912
	0.199878
	0.196013
	0.195046
	0.190859
	0.192147
	0.189248
	0.193436
	0.192147
	0.192469
	0.193114
	0.168632
	0.138030
	0.048478
	0.030439
	0.033338
	0.035593
	0.037848
	0.034627
	0.036560
	0.033983
	0.038814
	0.034627
	0.107750
	0.154136
	0.170565
	0.180229
	0.180551
	0.187638
	0.183772
	0.186993
	0.165733
	0.129977
	0.149626
	0.193758
	0.228226
	0.235957
	0.244332
	0.245298
	0.243366
	0.244976
	0.242721
	0.244332
	0.236601
	0.239822
	0.235635
	0.236279
	0.238534
	0.239178
	0.237245
	0.233380
	0.215985
	0.178940
	0.170565
	0.193114
	0.220495
	0.228226
	0.229836
	0.232091
	0.229836
	0.230158
	0.227259
	0.231125
	0.061686
	-0.040429
	-0.115162
	-0.150596
	-0.195050
	-0.215988
	-0.225652
	-0.230484
	-0.305862
	-0.379951
	-0.431491
	-0.434713
	-0.446953
	-0.463382
	-0.467570
	-0.467892
	-0.320035
	-0.222753
	0.037204
	0.196335
	0.462735
	0.625410
	0.863463
	1.001657
	1.207820
	1.325075
	1.548956
	1.675554
	1.912643
	2.020557
	2.241862
	2.405506
	2.637764
	2.764041
	2.986959
	3.119034
	3.312638
	3.427641
	3.666990
	3.814529
	3.660869
	3.544577
	3.316826
	3.173153
	2.931229
	2.782725
	2.575270
	2.441263
	2.158430
	1.954520
	1.696814
	1.578914
	1.368241
	1.239711
	1.028071
	0.909528
	0.648925
	0.495270
	0.281699
	0.158002
	-0.116129
	-0.280736
	-0.492373
	-0.619613
	-0.665355
	-0.684683
	-0.660523
	-0.645383
	-0.624767
	-0.631210
	-0.575804
	-0.506869
	-0.468214
	-0.449208
	-0.415063
	-0.390259
	-0.346772
	-0.328411
	-0.256254
	-0.216633
	-0.198271
	-0.194406
	-0.189896
	-0.187963
	-0.188285
	-0.182487
	-0.185064
	-0.182487
	-0.201493
	-0.230484
	-0.243047
	-0.218887
	-0.190862
	-0.184098
	-0.177977
	-0.178622
	-0.174112
	-0.176367
	-0.173790
	-0.173145
	-0.176367
	-0.174756
	-0.178299
	-0.174756
	-0.176045
	-0.169924
	-0.170890
	-0.168958
	-0.186675
	-0.221787
	-0.155428
	-0.085527
	-0.039140
	-0.024967
	-0.014659
	-0.012726
	-0.014014
	-0.011115
	-0.012726
	-0.010793
	0.014011
	0.037204
	0.039137
	0.046223
	0.045579
	0.049445
	0.048478
	0.049123
	0.033338
	-0.006283
	-0.014337
	0.007890
	0.035915
	0.043969
	0.049445
	0.050089
	0.047834
	0.052344
	0.049445
	0.050411
	0.045257
	0.048156
	0.044935
	0.045257
	0.048478
	0.044935
	0.048156
	0.044613
	0.029795
	-0.006283
	-0.181843
	-0.257865
	-0.277515
	-0.281702
	-0.283635
	-0.284279
	-0.316814
	-0.334853
	-0.340652
	-0.347094
	-0.344517
	-0.347416
	-0.378018
	-0.393802
	-0.402178
	-0.398956
	-0.401856
	-0.396702
	-0.475301
	-0.543269
	-0.563563
	-0.549068
	-0.524264
	-0.517177
	-0.509446
	-0.507513
	-0.509446
	-0.503003
	-0.505258
	-0.502037
	-0.502037
	-0.502359
	-0.500749
	-0.502681
	-0.496239
	-0.494628
	-0.489474
	-0.487864
	-0.509446
	-0.536505
	-0.548745
	-0.521365
	-0.498494
	-0.485931
	-0.480455
	-0.481421
	-0.477555
	-0.478200
	-0.474334
	-0.475623
	-0.292010
	-0.178622
	-0.136745
	-0.115485
	-0.109686
	-0.103244
	-0.100989
	-0.099700
	-0.115485
	-0.152851
	-0.159938
	-0.139966
	-0.111941
	-0.101311
	-0.023034
	0.026896
	0.041714
	0.054277
	0.056209
	0.056209
	0.057498
	0.053310
	0.053632
	0.050411
	0.056209
	0.054599
	0.056532
	0.056209
	0.035593
	0.004669
	-0.011115
	0.015943
	0.039781
	0.049767
	0.053954
	0.052022
	0.054599
	0.052022
	0.057498
	0.053632
	0.050733
	0.053310
	0.046868
	0.049445
	0.048478
	0.053632
	0.053310
	0.051055
	0.036237
	-0.000807
	-0.087460
	-0.112263
	-0.102599
	-0.098734
	-0.101311
	-0.095191
	-0.024000
	0.024641
	0.042680
	0.050089
	0.052022
	0.046546
	0.050411
	0.052022
	0.083590
	0.105173
	0.111293
	0.115159
	0.094865
	0.064263
	0.050089
	0.072316
	0.129655
	0.154780
	0.168310
	0.168954
	0.176363
	0.174430
	0.173786
	0.174430
	0.168310
	0.168632
	0.163800
	0.167988
	0.167666
	0.165411
	0.169276
	0.167021
	0.151237
	0.113548
	0.102596
	0.124500
	0.147694
	0.166055
	0.163156
	0.164766
	0.162189
	0.166699
	0.164444
	0.160579
	-0.036885
	-0.160260
	-0.207613
	-0.227907
	-0.232417
	-0.234027
	-0.234672
	-0.231450
	-0.248523
	-0.279447
	-0.295876
	-0.268817
	-0.246590
	-0.233705
	-0.228873
	-0.230162
	-0.257543
	-0.277515
	-0.281380
	-0.286212
	-0.286534
	-0.285890
	-0.289755
	-0.285890
	-0.284279
	-0.282024
	-0.284924
	-0.278481
	-0.294265
	-0.328089
	-0.338397
	-0.318425
	-0.288789
	-0.282991
	-0.273327
	-0.275582
	-0.272038
	-0.271394
	-0.268495
	-0.267529
	-0.270428
	-0.267207
	-0.273327
	-0.270750
	-0.271394
	-0.264630
	-0.265918
	-0.262697
	-0.276870
	-0.313271
	-0.229840
	-0.155751
	-0.104532
	-0.086171
	-0.073608
	-0.071675
	0.002092
	0.052344
	0.066517
	0.076503
	0.075537
	0.077470
	0.106461
	0.124178
	0.136419
	0.137063
	0.141573
	0.138674
	0.154780
	0.136419
	0.132876
	0.154780
	0.180229
	0.195046
	0.195046
	0.199234
	0.197301
	0.197946
	0.197301
	0.193114
	0.196335
	0.189892
	0.189892
	0.188604
	0.189570
	0.190537
	0.189570
	0.193114
	0.172175
	0.139963
	0.123212
	0.146083
	0.172820
	0.182161
	0.188282
	0.183772
	0.188282
	0.186349
	0.187315
	0.183450
	-0.017880
	-0.133524
	-0.187963
	-0.203425
	-0.212445
	-0.213089
	-0.211801
	-0.212767
	-0.257865
	-0.311982
	-0.327766
	-0.310372
	-0.284601
	-0.271394
	-0.271716
	-0.268173
	-0.300386
	-0.312304
	-0.319391
	-0.325189
	-0.323257
	-0.327766
	-0.326800
	-0.327766
	-0.322935
	-0.321646
	-0.320358
	-0.314881
	-0.334209
	-0.364167
	-0.377052
	-0.353214
	-0.325834
	-0.318425
	-0.310694
	-0.313271
	-0.308439
	-0.307795
	-0.304895
	-0.305218
	-0.308439
	-0.304895
	-0.311016
	-0.305218
	-0.304251
	-0.301352
	-0.299097
	-0.300386
	-0.311338
	-0.347738
	-0.294587
	-0.236927
	-0.198271
	-0.177333
	-0.174112
	-0.170246
	-0.168636
	-0.168313
	-0.166059
	-0.170246
	-0.198271
	-0.216955
	-0.227907
	-0.224686
	-0.228229
	-0.225330
	-0.227907
	-0.223075
	-0.237893
	-0.274293
	-0.312304
	-0.312949
	-0.291688
	-0.282024
	-0.281702
	-0.278159
	-0.280092
	-0.273971
	-0.274938
	-0.274938
	-0.272038
	-0.277837
	-0.276548
	-0.277515
	-0.272683
	-0.271072
	-0.271072
	-0.266562
	-0.285890
	-0.314881
	-0.329055
	-0.306828
	-0.279769
	-0.268173
	-0.261730
	-0.263985
	-0.258509
	-0.260764
	-0.258187
	-0.259798
	-0.133202
	-0.063300
	-0.035919
	-0.020457
	-0.018524
	-0.012404
	0.065229
	0.112904
	0.114192
	0.084234
	0.079080
	0.093898
	0.125145
	0.135775
	0.171531
	0.190537
	0.197946
	0.201811
	0.197946
	0.203100
	0.198590
	0.196979
	0.226293
	0.241433
	0.250775
	0.252063
	0.259472
	0.253674
	0.239500
	0.205355
	0.185705
	0.207287
	0.234024
	0.248520
	0.249808
	0.250452
	0.251419
	0.246587
	0.250452
	0.246909
	0.247231
	0.243688
	0.242077
	0.243366
	0.238856
	0.244332
	0.241433
	0.241433
	0.228870
	0.188282
	0.037204
	-0.028188
	-0.029799
	-0.033664
	-0.034631
	-0.033986
	-0.036563
	-0.034631
	-0.035597
	-0.034308
	-0.037530
	-0.038174
	-0.039140
	-0.042684
	0.041392
	0.084879
	0.106139
	0.112904
	0.099374
	0.066517
	0.048156
	0.073282
	0.100985
	0.111937
	0.117092
	0.114837
	0.116447
	0.112904
	0.116769
	0.112582
	0.114837
	0.112260
	0.108394
	0.110005
	0.107750
	0.111615
	0.109360
	0.114515
	0.096475
	0.061041
	0.047190
	0.063618
	0.093898
	0.103240
	0.109360
	0.108394
	0.111293
	0.110327
	0.108716
	0.111293
	-0.035919
	-0.115807
	-0.151241
	-0.161227
	-0.166703
	-0.166703
	-0.165092
	-0.167991
	-0.208902
	-0.262697
	-0.282347
	-0.267851
	-0.241114
	-0.229196
	-0.228551
	-0.222109
	-0.253999
	-0.270106
	-0.273649
	-0.281380
	-0.280736
	-0.281380
	-0.281702
	-0.282669
	-0.280092
	-0.275904
	-0.278803
	-0.273327
	-0.287823
	-0.321002
	-0.332276
	-0.315526
	-0.285246
	-0.277192
	-0.267851
	-0.270106
	-0.265918
	-0.263985
	-0.265274
	-0.263663
	-0.266562
	-0.263985
	-0.268495
	-0.263985
	-0.262052
	-0.261730
	-0.258187
	-0.259475
	-0.270106
	-0.305862
	-0.252389
	-0.199882
	-0.158005
	-0.134490
	-0.135456
	-0.128692
	-0.127081
	-0.126115
	-0.126437
	-0.128692
	-0.125471
	-0.131269
	-0.129980
	-0.129336
	-0.126759
	-0.124826
	-0.157361
	-0.170890
	-0.197949
	-0.230162
	-0.246913
	-0.227907
	-0.198916
	-0.187319
	-0.182487
	-0.184420
	-0.180876
	-0.182487
	-0.177655
	-0.179266
	-0.178944
	-0.179266
	-0.181521
	-0.179588
	-0.183776
	-0.175400
	-0.177333
	-0.175078
	-0.186030
	-0.223075
	-0.234350
	-0.218565
	-0.187319
	-0.177011
	-0.173145
	-0.168313
	-0.172179
	-0.168313
	-0.167991
	-0.167347
	-0.136101
	-0.120639
	-0.144476
	-0.160905
	-0.194406
	-0.211801
	-0.222753
	-0.221787
	-0.302641
	-0.367066
	-0.428270
	-0.433424
	-0.446631
	-0.457584
	-0.459838
	-0.463382
	-0.301352
	-0.211156
	0.060397
	0.211475
	0.488827
	0.638295
	0.880214
	1.014220
	1.224249
	1.333129
	1.568928
	1.689083
	1.942923
	2.041818
	2.262156
	2.410016
	2.650006
	2.775638
	3.003710
	3.130953
	3.334222
	3.435695
	3.692439
	3.822583
	3.657003
	3.542967
	3.305874
	3.172831
	2.919955
	2.786268
	2.564318
	2.446095
	2.154886
	1.959352
	1.688439
	1.566996
	1.357933
	1.232946
	1.023884
	0.908561
	0.640550
	0.495592
	0.273968
	0.159935
	-0.127403
	-0.278159
	-0.498494
	-0.612849
	-0.659557
	-0.677918
	-0.650860
	-0.638941
	-0.605440
	-0.620580
	-0.560986
	-0.503970
	-0.463382
	-0.441477
	-0.405399
	-0.381240
	-0.341618
	-0.315526
	-0.242725
	-0.205680
	-0.186675
	-0.185708
	-0.181521
	-0.180876
	-0.178944
	-0.176045
	-0.176045
	-0.173145
	-0.188285
	-0.220176
	-0.236282
	-0.218887
	-0.187641
	-0.177977
	-0.172501
	-0.173145
	-0.167991
	-0.169602
	-0.167669
	-0.164770
	-0.170890
	-0.165736
	-0.168636
	-0.165092
	-0.166703
	-0.163804
	-0.161871
	-0.164770
	-0.171857
	-0.212123
	-0.225330
	-0.205036
	-0.178622
	-0.166059
	-0.083594
	-0.034308
	-0.017880
	-0.006928
	-0.004995
	-0.004995
	-0.003384
	-0.009827
	-0.007572
	-0.005639
	-0.007250
	-0.003062
	-0.004351
	-0.000485
	-0.017236
	-0.052670
	-0.068132
	-0.054603
	-0.022712
	-0.011760
	-0.005639
	-0.005639
	-0.000485
	-0.002096
	-0.003706
	-0.000163
	-0.004995
	-0.003062
	-0.008538
	-0.004673
	-0.005639
	-0.005639
	-0.001451
	-0.005961
	-0.014659
	-0.052348
	-0.147053
	-0.174434
	-0.165092
	-0.154140
	-0.158005
	-0.152851
	-0.151885
	-0.153173
	-0.151563
	-0.152529
	-0.071353
	-0.032054
	-0.014014
	-0.005961
	-0.006928
	0.000481
	-0.000807
	0.002414
	-0.008538
	-0.045583
	-0.026577
	0.001770
	0.043646
	0.055887
	0.062008
	0.065229
	0.062974
	0.066195
	0.064263
	0.064907
	0.063296
	0.062008
	0.061363
	0.057498
	0.062974
	0.061363
	0.064263
	0.063618
	0.052022
	0.017554
	-0.004028
	0.015621
	0.044291
	0.056854
	0.062008
	0.059753
	0.063296
	0.060075
	0.062652
	0.059431
	-0.116129
	-0.212123
	-0.253355
	-0.266562
	-0.277837
	-0.273649
	-0.275904
	-0.273005
	-0.316170
	-0.364489
	-0.387682
	-0.377696
	-0.344839
	-0.337430
	-0.330343
	-0.329699
	-0.356436
	-0.373508
	-0.379951
	-0.379951
	-0.385749
	-0.382206
	-0.387038
	-0.382850
	-0.380917
	-0.380273
	-0.375441
	-0.376408
	-0.383494
	-0.419895
	-0.431169
	-0.415707
	-0.388648
	-0.372864
	-0.370609
	-0.366100
	-0.366100
	-0.361268
	-0.363200
	-0.359335
	-0.359657
	-0.363523
	-0.360946
	-0.362556
	-0.358691
	-0.356758
	-0.354181
	-0.352248
	-0.363523
	-0.393480
	-0.285890
	-0.195694
	-0.139644
	-0.115807
	-0.105499
	-0.103888
	-0.017880
	0.022386
	0.044613
	0.049445
	0.050411
	0.052666
	0.081013
	0.102274
	0.106461
	0.113226
	0.113226
	0.113548
	0.138674
	0.111937
	0.104529
	0.123534
	0.153492
	0.167343
	0.168954
	0.171853
	0.168954
	0.173464
	0.171853
	0.168954
	0.169920
	0.166699
	0.166377
	0.164444
	0.165089
	0.166699
	0.163800
	0.167988
	0.153492
	0.119024
	0.100985
	0.114837
	0.146405
	0.156069
	0.164122
	0.161867
	0.162834
	0.164766
	0.161545
	0.161223
	-0.052670
	-0.164126
	-0.210834
	-0.231450
	-0.232417
	-0.237571
	-0.234350
	-0.233383
	-0.244980
	-0.277837
	-0.329699
	-0.327444
	-0.307150
	-0.296520
	-0.291366
	-0.294587
	-0.288145
	-0.288145
	-0.286856
	-0.285568
	-0.321002
	-0.335820
	-0.347416
	-0.346450
	-0.345806
	-0.344839
	-0.340652
	-0.342906
	-0.347738
	-0.383172
	-0.397346
	-0.382206
	-0.355791
	-0.337430
	-0.336142
	-0.332276
	-0.329377
	-0.330988
	-0.327766
	-0.328089
	-0.324867
	-0.329699
	-0.329377
	-0.327444
	-0.330988
	-0.322290
	-0.322612
	-0.320680
	-0.327766
	-0.362878
	-0.311982
	-0.267851
	-0.218243
	-0.200526
	-0.195050
	-0.187963
	-0.189896
	-0.185064
	-0.187641
	-0.185386
	-0.186353
	-0.188930
	-0.186030
	-0.188285
	-0.183776
	-0.182487
	-0.214378
	-0.231450
	-0.248201
	-0.283313
	-0.305540
	-0.288789
	-0.259153
	-0.246590
	-0.241114
	-0.240792
	-0.237249
	-0.239181
	-0.235316
	-0.234350
	-0.237571
	-0.234994
	-0.238859
	-0.234672
	-0.236604
	-0.231450
	-0.230162
	-0.232095
	-0.236927
	-0.275582
	-0.289433
	-0.276548
	-0.242725
	-0.231773
	-0.228551
	-0.221142
	-0.225652
	-0.222431
	-0.224041
	-0.218243
	-0.121927
	-0.074574
	-0.049126
	-0.044939
	-0.036885
	-0.033342
	0.046868
	0.090999
	0.095831
	0.070061
	0.049767
	0.067806
	0.099052
	0.111293
	0.149626
	0.165089
	0.177007
	0.178296
	0.179584
	0.182161
	0.174752
	0.176363
	0.204066
	0.224682
	0.228226
	0.232091
	0.237889
	0.231447
	0.223716
	0.182806
	0.167343
	0.181195
	0.209220
	0.224682
	0.225004
	0.229514
	0.228548
	0.227904
	0.228226
	0.224360
	0.226615
	0.219206
	0.220817
	0.220495
	0.219206
	0.222105
	0.218884
	0.223394
	0.209864
	0.170565
	-0.055569
	-0.154784
	-0.167991
	-0.175722
	-0.174434
	-0.178944
	-0.209868
	-0.226296
	-0.234672
	-0.234994
	-0.239181
	-0.236927
	-0.273005
	-0.286534
	-0.292332
	-0.293299
	-0.293621
	-0.295554
	-0.364811
	-0.436001
	-0.462415
	-0.453396
	-0.428270
	-0.413452
	-0.410875
	-0.407332
	-0.407332
	-0.402500
	-0.403144
	-0.403466
	-0.401534
	-0.404111
	-0.400889
	-0.402822
	-0.396702
	-0.396702
	-0.395413
	-0.390581
	-0.400567
	-0.431813
	-0.450819
	-0.433746
	-0.405399
	-0.391870
	-0.383172
	-0.386394
	-0.380595
	-0.381240
	-0.378340
	-0.374797
	-0.247879
	-0.177655
	-0.155106
	-0.139322
	-0.133846
	-0.131591
	-0.128370
	-0.129658
	-0.166381
	-0.222753
	-0.243369
	-0.232417
	-0.205358
	-0.190540
	-0.189252
	-0.185064
	-0.217921
	-0.231773
	-0.237893
	-0.242081
	-0.240792
	-0.246268
	-0.244980
	-0.244980
	-0.242081
	-0.240470
	-0.240792
	-0.234994
	-0.245946
	-0.276870
	-0.295554
	-0.280092
	-0.251422
	-0.241758
	-0.232739
	-0.234672
	-0.229840
	-0.229196
	-0.229840
	-0.227907
	-0.231450
	-0.226941
	-0.232739
	-0.229196
	-0.227907
	-0.227263
	-0.223075
	-0.225974
	-0.227585
	-0.262375
	-0.149952
	-0.068454
	-0.014659
	0.011756
	0.018198
	0.027862
	0.108394
	0.149626
	0.170565
	0.174430
	0.177007
	0.173142
	0.207609
	0.224682
	0.229836
	0.236923
	0.232735
	0.237567
	0.260438
	0.240467
	0.225326
	0.239178
	0.275256
	0.280733
	0.290396
	0.290396
	0.292973
	0.289752
	0.290396
	0.289430
	0.283310
	0.285242
	0.281377
	0.282021
	0.281377
	0.282021
	0.282343
	0.278478
	0.275256
	0.234024
	0.214052
	0.227259
	0.256895
	0.270747
	0.270747
	0.277189
	0.273001
	0.274934
	0.275256
	0.265915
	0.054599
	-0.056857
	-0.100667
	-0.119028
	-0.128370
	-0.124826
	-0.128692
	-0.126759
	-0.131269
	-0.170246
	-0.187319
	-0.177655
	-0.142543
	-0.132557
	-0.126115
	-0.122571
	-0.158972
	-0.172501
	-0.181521
	-0.180232
	-0.183453
	-0.185386
	-0.182487
	-0.187641
	-0.183453
	-0.183131
	-0.179910
	-0.180554
	-0.187963
	-0.218887
	-0.241114
	-0.225974
	-0.196016
	-0.183131
	-0.177655
	-0.178944
	-0.173145
	-0.173790
	-0.173468
	-0.171213
	-0.176367
	-0.173145
	-0.177011
	-0.173790
	-0.172501
	-0.172501
	-0.167991
	-0.170890
	-0.174112
	-0.210512
	-0.192473
	-0.166381
	-0.128370
	-0.109364
	-0.108398
	-0.102599
	-0.102277
	-0.101633
	-0.100667
	-0.104532
	-0.134168
	-0.155751
	-0.161227
	-0.163804
	-0.163159
	-0.161871
	-0.163159
	-0.158650
	-0.165092
	-0.200204
	-0.251422
	-0.257543
	-0.232417
	-0.224686
	-0.216310
	-0.217277
	-0.216633
	-0.212767
	-0.215022
	-0.211479
	-0.214378
	-0.213733
	-0.215022
	-0.217921
	-0.208579
	-0.214056
	-0.209224
	-0.208257
	-0.215022
	-0.247557
	-0.270106
	-0.253355
	-0.226941
	-0.211479
	-0.203425
	-0.206002
	-0.202137
	-0.204392
	-0.199560
	-0.197305
	-0.066521
	0.000481
	0.022708
	0.035593
	0.037848
	0.048156
	0.128044
	0.169598
	0.182483
	0.148660
	0.133520
	0.141251
	0.177974
	0.189248
	0.227259
	0.246909
	0.252063
	0.255607
	0.255607
	0.257539
	0.254962
	0.252063
	0.284920
	0.295228
	0.305214
	0.303604
	0.311013
	0.306503
	0.301993
	0.264304
	0.242399
	0.251741
	0.282665
	0.297805
	0.298450
	0.302959
	0.303604
	0.300382
	0.302315
	0.299416
	0.300382
	0.293618
	0.294262
	0.293296
	0.292007
	0.293618
	0.292651
	0.292973
	0.282343
	0.241755
	0.010467
	-0.088748
	-0.100989
	-0.104532
	-0.106143
	-0.112263
	-0.139966
	-0.160260
	-0.164126
	-0.165414
	-0.168313
	-0.170246
	-0.205358
	-0.217277
	-0.228551
	-0.224686
	-0.224686
	-0.226941
	-0.297486
	-0.366100
	-0.395091
	-0.392836
	-0.361590
	-0.349027
	-0.344839
	-0.339363
	-0.340652
	-0.336142
	-0.337108
	-0.333565
	-0.335497
	-0.336786
	-0.335175
	-0.333887
	-0.333243
	-0.333887
	-0.327444
	-0.329377
	-0.332276
	-0.365777
	-0.385105
	-0.372864
	-0.347416
	-0.327444
	-0.324223
	-0.319713
	-0.317780
	-0.317780
	-0.315203
	-0.310694
	-0.112263
	-0.018524
	0.024319
	0.041392
	0.046868
	0.052022
	0.051700
	0.054599
	0.044613
	0.011756
	-0.009183
	0.000481
	0.032694
	0.048478
	0.135775
	0.174430
	0.196979
	0.200201
	0.205032
	0.205032
	0.203422
	0.201811
	0.195046
	0.200201
	0.196013
	0.199556
	0.200201
	0.199556
	0.194402
	0.153170
	0.136741
	0.141895
	0.175397
	0.189570
	0.194402
	0.195691
	0.193114
	0.196335
	0.192792
	0.194402
	0.192147
	0.190859
	0.190537
	0.185705
	0.189892
	0.186349
	0.190537
	0.186027
	0.183772
	0.143506
	0.037848
	0.007568
	0.020453
	0.031406
	0.030117
	0.034627
	0.035271
	0.032050
	0.035271
	0.035915
	0.118058
	0.153170
	0.171853
	0.179262
	0.178296
	0.183450
	0.181517
	0.185060
	0.175719
	0.142540
	0.153492
	0.175719
	0.217595
	0.230803
	0.239822
	0.238856
	0.243366
	0.240467
	0.239822
	0.241755
	0.236279
	0.236601
	0.231125
	0.234990
	0.231125
	0.233702
	0.235312
	0.233702
	0.228548
	0.188282
	0.169920
	0.173142
	0.207287
	0.222105
	0.225004
	0.226937
	0.225649
	0.230481
	0.225326
	0.222105
	0.106139
	0.043969
	0.021097
	0.008857
	0.009179
	0.005957
	0.008534
	0.007890
	0.002736
	-0.028510
	0.029151
	0.080691
	0.124178
	0.148660
	0.155747
	0.157680
	0.158968
	0.157680
	0.159290
	0.156391
	0.194402
	0.206643
	0.211475
	0.215341
	0.214052
	0.217273
	0.214052
	0.216307
	0.212119
	0.173142
	0.152526
	0.155425
	0.191825
	0.202778
	0.210831
	0.211797
	0.209542
	0.212764
	0.208576
	0.211797
	0.207287
	0.205677
	0.205677
	0.200845
	0.204066
	0.202778
	0.206643
	0.205032
	0.197946
	0.155747
	-0.050093
	-0.127725
	-0.134812
	-0.131269
	-0.133524
	-0.137389
	-0.166059
	-0.187319
	-0.190540
	-0.191507
	-0.195372
	-0.197305
	-0.233061
	-0.244658
	-0.254321
	-0.250778
	-0.250456
	-0.254321
	-0.319713
	-0.388648
	-0.418928
	-0.421505
	-0.387360
	-0.375119
	-0.369643
	-0.366100
	-0.366422
	-0.361268
	-0.365133
	-0.359335
	-0.359013
	-0.362556
	-0.363523
	-0.363523
	-0.357402
	-0.359335
	-0.352570
	-0.351604
	-0.356436
	-0.388326
	-0.409265
	-0.398956
	-0.370931
	-0.353214
	-0.346772
	-0.344195
	-0.341296
	-0.340652
	-0.338074
	-0.330343
	-0.132879
	-0.039463
	0.000803
	0.017554
	0.023997
	0.029795
	0.026574
	0.032050
	0.025285
	-0.008538
	-0.030121
	-0.024645
	0.010467
	0.024319
	0.116125
	0.156713
	0.173142
	0.179906
	0.182161
	0.184416
	0.178296
	0.180229
	0.177329
	0.176685
	0.177974
	0.177329
	0.179262
	0.175719
	0.175397
	0.136419
	0.113548
	0.121923
	0.152848
	0.169598
	0.169920
	0.175075
	0.174752
	0.174752
	0.174752
	0.171531
	0.173786
	0.167021
	0.167988
	0.167021
	0.167343
	0.168954
	0.167666
	0.169920
	0.160901
	0.122246
	0.018843
	-0.014981
	0.003380
	0.007246
	0.015299
	0.016910
	0.099697
	0.141573
	0.155103
	0.162834
	0.161545
	0.164766
	0.160579
	0.165411
	0.197946
	0.213086
	0.222427
	0.219850
	0.221783
	0.181517
	0.159290
	0.168310
	0.232091
	0.263015
	0.272035
	0.277511
	0.277833
	0.280410
	0.280088
	0.279122
	0.277511
	0.270102
	0.273324
	0.270102
	0.269136
	0.272679
	0.269780
	0.272357
	0.263015
	0.228226
	0.203100
	0.211153
	0.243688
	0.259472
	0.265592
	0.263982
	0.265915
	0.261405
	0.265592
	0.251097
	0.037526
	-0.067488
	-0.113552
	-0.126115
	-0.136423
	-0.133846
	-0.134168
	-0.133846
	-0.139000
	-0.177655
	-0.193117
	-0.191185
	-0.157361
	-0.142865
	-0.134812
	-0.136423
	-0.167347
	-0.181199
	-0.189252
	-0.189252
	-0.193439
	-0.191829
	-0.196339
	-0.194084
	-0.192795
	-0.193439
	-0.188607
	-0.188285
	-0.191507
	-0.229196
	-0.247235
	-0.240148
	-0.208902
	-0.190862
	-0.188285
	-0.184742
	-0.184420
	-0.180876
	-0.181199
	-0.182809
	-0.177977
	-0.185064
	-0.182809
	-0.182165
	-0.179910
	-0.179588
	-0.176689
	-0.174434
	-0.181843
	-0.208579
	-0.135456
	-0.075863
	-0.028510
	-0.003384
	0.007890
	0.013366
	0.099052
	0.136419
	0.156391
	0.160901
	0.161545
	0.164122
	0.193114
	0.213086
	0.217273
	0.224038
	0.222105
	0.226615
	0.252707
	0.227581
	0.213086
	0.218562
	0.255284
	0.266237
	0.275578
	0.278478
	0.274612
	0.277511
	0.276223
	0.277833
	0.271391
	0.272357
	0.270747
	0.269458
	0.271391
	0.268814
	0.271713
	0.265915
	0.263660
	0.226615
	0.199234
	0.207932
	0.238212
	0.255929
	0.257861
	0.263015
	0.264304
	0.260761
	0.261727
	0.245298
	0.034627
	-0.073930
	-0.113874
	-0.130947
	-0.139322
	-0.137711
	-0.139644
	-0.139000
	-0.180232
	-0.226619
	-0.255932
	-0.254644
	-0.218565
	-0.208579
	-0.200526
	-0.202459
	-0.230162
	-0.246913
	-0.253999
	-0.251744
	-0.257221
	-0.255610
	-0.255610
	-0.255610
	-0.253355
	-0.254644
	-0.247557
	-0.249812
	-0.252711
	-0.284279
	-0.309083
	-0.300708
	-0.269784
	-0.251422
	-0.246913
	-0.243369
	-0.239504
	-0.242403
	-0.238859
	-0.241114
	-0.239181
	-0.241114
	-0.243047
	-0.239504
	-0.243047
	-0.237893
	-0.234027
	-0.234672
	-0.236604
	-0.269784
	-0.220820
	-0.186353
	-0.138678
	-0.116451
	-0.112585
	-0.106787
	-0.108720
	-0.104854
	-0.106465
	-0.106465
	-0.139644
	-0.160260
	-0.165092
	-0.169602
	-0.166059
	-0.166059
	-0.164126
	-0.162515
	-0.169924
	-0.201493
	-0.255610
	-0.266240
	-0.238859
	-0.229196
	-0.219854
	-0.222109
	-0.217921
	-0.217599
	-0.219210
	-0.214378
	-0.217599
	-0.217921
	-0.219532
	-0.217277
	-0.215344
	-0.216633
	-0.209546
	-0.213411
	-0.213411
	-0.248201
	-0.269461
	-0.264307
	-0.234672
	-0.214378
	-0.210834
	-0.206969
	-0.204070
	-0.205680
	-0.202781
	-0.202781
	-0.131591
	-0.101633
	-0.091003
	-0.083916
	-0.083916
	-0.079406
	-0.080373
	-0.078440
	-0.116773
	-0.165736
	-0.193117
	-0.193439
	-0.159938
	-0.147375
	-0.139000
	-0.141899
	-0.169924
	-0.185064
	-0.192795
	-0.191507
	-0.194728
	-0.194728
	-0.197305
	-0.195050
	-0.193439
	-0.196339
	-0.188607
	-0.191829
	-0.192473
	-0.225008
	-0.249167
	-0.243047
	-0.214378
	-0.193439
	-0.189896
	-0.186997
	-0.182809
	-0.185064
	-0.181521
	-0.185064
	-0.180554
	-0.186030
	-0.185064
	-0.183131
	-0.184420
	-0.181199
	-0.180876
	-0.178299
	-0.184420
	-0.203425
	-0.096157
	-0.030121
	0.027540
	0.052344
	0.064585
	0.069739
	0.157358
	0.195046
	0.211797
	0.218240
	0.218240
	0.221783
	0.247875
	0.265915
	0.273001
	0.272679
	0.278155
	0.277511
	0.308758
	0.287175
	0.268492
	0.273968
	0.304570
	0.324864
	0.328730
	0.330018
	0.330985
	0.328085
	0.331629
	0.327441
	0.329052
	0.325508
	0.320676
	0.322287
	0.319388
	0.321643
	0.321643
	0.319710
	0.318099
	0.276545
	0.253996
	0.256573
	0.289430
	0.306825
	0.309724
	0.312623
	0.309724
	0.311335
	0.312945
	0.290718
	0.079725
	-0.024967
	-0.066199
	-0.082950
	-0.090037
	-0.089070
	-0.093258
	-0.089392
	-0.089714
	-0.127725
	-0.146731
	-0.148342
	-0.111619
	-0.098412
	-0.091325
	-0.090037
	-0.125793
	-0.139000
	-0.145120
	-0.145765
	-0.148019
	-0.149630
	-0.149308
	-0.153173
	-0.148019
	-0.146731
	-0.144476
	-0.144476
	-0.147053
	-0.178944
	-0.206002
	-0.197949
	-0.167669
	-0.151563
	-0.141899
	-0.142865
	-0.137711
	-0.142221
	-0.135779
	-0.138356
	-0.138034
	-0.137389
	-0.140611
	-0.139000
	-0.139644
	-0.135134
	-0.136101
	-0.136101
	-0.135134
	-0.169602
	-0.157361
	-0.139000
	-0.098412
	-0.081661
	-0.073608
	-0.070065
	-0.071353
	-0.066843
	-0.067165
	-0.072320
	-0.101955
	-0.123538
	-0.127403
	-0.130947
	-0.130947
	-0.129014
	-0.129980
	-0.126115
	-0.129980
	-0.166381
	-0.219532
	-0.234672
	-0.206324
	-0.195372
	-0.186675
	-0.187319
	-0.182809
	-0.181521
	-0.184742
	-0.180232
	-0.182487
	-0.182809
	-0.183131
	-0.184420
	-0.180554
	-0.182809
	-0.176367
	-0.178622
	-0.181843
	-0.211156
	-0.237571
	-0.232095
	-0.202137
	-0.182809
	-0.176689
	-0.176045
	-0.171535
	-0.173790
	-0.168636
	-0.159294
	-0.026577
	0.033016
	0.052666
	0.067484
	0.067484
	0.080369
	0.165411
	0.200845
	0.215985
	0.182806
	0.163478
	0.162512
	0.199878
	0.217918
	0.254640
	0.275256
	0.279766
	0.281377
	0.281377
	0.281699
	0.282987
	0.277511
	0.313912
	0.324542
	0.331629
	0.335172
	0.334206
	0.336139
	0.330018
	0.298450
	0.269458
	0.271069
	0.306503
	0.317777
	0.329052
	0.327763
	0.329374
	0.327119
	0.324542
	0.328407
	0.321643
	0.322287
	0.320032
	0.317133
	0.317777
	0.314556
	0.319710
	0.315844
	0.315844
	0.259472
	0.022708
	-0.074897
	-0.084560
	-0.081017
	-0.084560
	-0.084882
	-0.116773
	-0.135456
	-0.139322
	-0.144154
	-0.141577
	-0.148986
	-0.183131
	-0.194406
	-0.204392
	-0.202137
	-0.201170
	-0.208257
	-0.273971
	-0.339363
	-0.370287
	-0.376730
	-0.342906
	-0.326478
	-0.321968
	-0.318103
	-0.318747
	-0.313593
	-0.314881
	-0.313593
	-0.309727
	-0.316814
	-0.311982
	-0.314881
	-0.309727
	-0.310372
	-0.308117
	-0.304573
	-0.309405
	-0.337108
	-0.360623
	-0.358046
	-0.326478
	-0.310694
	-0.301030
	-0.301352
	-0.292977
	-0.296520
	-0.292977
	-0.273971
	-0.076829
	0.013044
	0.044613
	0.064585
	0.067162
	0.071994
	0.074249
	0.073604
	0.072960
	0.035915
	0.014655
	0.012400
	0.047834
	0.071994
	0.158968
	0.199878
	0.213408
	0.224360
	0.224682
	0.224682
	0.226937
	0.221783
	0.221139
	0.218562
	0.222105
	0.218562
	0.221139
	0.222749
	0.215341
	0.182483
	0.154136
	0.157680
	0.186671
	0.205999
	0.214696
	0.211153
	0.216307
	0.215341
	0.216629
	0.214374
	0.211475
	0.212441
	0.204066
	0.210186
	0.208254
	0.207932
	0.210186
	0.207287
	0.207287
	0.160901
	0.056854
	0.019165
	0.033016
	0.046868
	0.048478
	0.052666
	0.052022
	0.050733
	0.054921
	0.060075
	0.143184
	0.176685
	0.192792
	0.197946
	0.197623
	0.202778
	0.198912
	0.202455
	0.199234
	0.167988
	0.175719
	0.187960
	0.230481
	0.244976
	0.259794
	0.257217
	0.257861
	0.259472
	0.257217
	0.258184
	0.254640
	0.255607
	0.251741
	0.246909
	0.251097
	0.246587
	0.251097
	0.250775
	0.249808
	0.216629
	0.184738
	0.186027
	0.216629
	0.235312
	0.244010
	0.243044
	0.245943
	0.241755
	0.245943
	0.223394
	0.042036
	-0.044617
	-0.115485
	-0.145120
	-0.188607
	-0.206002
	-0.211479
	-0.226619
	-0.288789
	-0.355147
	-0.422472
	-0.445021
	-0.457261
	-0.456295
	-0.459516
	-0.438578
	-0.275582
	-0.170246
	0.105495
	0.252707
	0.533603
	0.679205
	0.923379
	1.047399
	1.259039
	1.374683
	1.602108
	1.734826
	1.997363
	2.101090
	2.301457
	2.427411
	2.670300
	2.803342
	3.040111
	3.161879
	3.364502
	3.474029
	3.730451
	3.818395
	3.635742
	3.518484
	3.278492
	3.142872
	2.889674
	2.757598
	2.541446
	2.411948
	2.138457
	1.943889
	1.667823
	1.518998
	1.320888
	1.201377
	1.000046
	0.874738
	0.611558
	0.467245
	0.250775
	0.127077
	-0.158005
	-0.307472
	-0.522009
	-0.618969
	-0.658591
	-0.673409
	-0.641196
	-0.626378
	-0.587723
	-0.593843
	-0.543914
	-0.512989
	-0.466925
	-0.436001
	-0.398634
	-0.371576
	-0.331632
	-0.303929
	-0.229840
	-0.197949
	-0.182487
	-0.182165
	-0.176045
	-0.177655
	-0.172823
	-0.173468
	-0.170246
	-0.170568
	-0.171857
	-0.199882
	-0.229840
	-0.228873
	-0.196661
	-0.176689
	-0.168313
	-0.168313
	-0.162515
	-0.167347
	-0.162193
	-0.164126
	-0.161227
	-0.163159
	-0.165736
	-0.162193
	-0.166381
	-0.162193
	-0.159616
	-0.158005
	-0.159938
	-0.190862
	-0.214378
	-0.220820
	-0.184420
	-0.157683
	-0.064588
	-0.027222
	-0.009827
	-0.002740
	-0.003062
	0.002092
	-0.001451
	-0.001129
	-0.004028
	-0.002418
	-0.002096
	-0.004351
	0.002736
	-0.001774
	-0.000163
	-0.032698
	-0.059434
	-0.061689
	-0.031409
	-0.007572
	-0.004028
	-0.000485
	0.002092
	-0.000485
	0.003058
	-0.001129
	0.003380
	-0.001774
	-0.002740
	-0.001451
	-0.003384
	0.001126
	-0.000807
	0.003703
	0.000159
	-0.043650
	-0.146731
	-0.190862
	-0.168958
	-0.158328
	-0.150919
	-0.150596
	-0.149308
	-0.146731
	-0.148986
	-0.136423
	-0.056857
	-0.020135
	-0.006606
	-0.002096
	0.003380
	0.001448
	0.008212
	0.005635
	0.005957
	-0.022390
	-0.017880
	-0.003062
	0.032694
	0.058142
	0.064907
	0.067162
	0.070061
	0.067484
	0.069739
	0.066195
	0.071027
	0.068772
	0.064907
	0.065873
	0.063618
	0.066195
	0.067162
	0.069094
	0.066195
	0.031728
	0.008534
	0.001126
	0.039781
	0.053954
	0.064907
	0.065551
	0.064585
	0.069417
	0.064907
	0.044935
	-0.133846
	-0.220176
	-0.252067
	-0.269139
	-0.268495
	-0.269784
	-0.270750
	-0.269461
	-0.307795
	-0.349671
	-0.382850
	-0.385427
	-0.353214
	-0.337108
	-0.324545
	-0.331954
	-0.357080
	-0.371576
	-0.376730
	-0.377052
	-0.378662
	-0.376730
	-0.378985
	-0.377696
	-0.376085
	-0.377052
	-0.371254
	-0.372864
	-0.368677
	-0.402178
	-0.423760
	-0.425371
	-0.394125
	-0.373186
	-0.367388
	-0.362234
	-0.362556
	-0.357724
	-0.355147
	-0.358691
	-0.353537
	-0.358046
	-0.355791
	-0.360301
	-0.353537
	-0.353859
	-0.350960
	-0.346128
	-0.349993
	-0.359013
	-0.259153
	-0.198593
	-0.145120
	-0.115162
	-0.099700
	-0.089714
	-0.003706
	0.030439
	0.050089
	0.049445
	0.057498
	0.061041
	0.090677
	0.106783
	0.111293
	0.116125
	0.114192
	0.124178
	0.154136
	0.135453
	0.116125
	0.111293
	0.147049
	0.162834
	0.173786
	0.171209
	0.174430
	0.175075
	0.175719
	0.176041
	0.172820
	0.174108
	0.167343
	0.168632
	0.169276
	0.166699
	0.174108
	0.169598
	0.170243
	0.135453
	0.110327
	0.105173
	0.137708
	0.158324
	0.162189
	0.165733
	0.165411
	0.166699
	0.166377
	0.133842
	-0.071031
	-0.174756
	-0.208579
	-0.226296
	-0.231128
	-0.232417
	-0.234027
	-0.229840
	-0.233705
	-0.264307
	-0.321646
	-0.342262
	-0.313271
	-0.300064
	-0.290400
	-0.290078
	-0.284601
	-0.285568
	-0.284279
	-0.285568
	-0.322290
	-0.334531
	-0.341618
	-0.342584
	-0.342584
	-0.341940
	-0.336464
	-0.339685
	-0.335175
	-0.364167
	-0.388971
	-0.391225
	-0.360301
	-0.339363
	-0.332920
	-0.328089
	-0.325834
	-0.325189
	-0.323257
	-0.325189
	-0.321646
	-0.327444
	-0.324545
	-0.325512
	-0.322612
	-0.318747
	-0.318103
	-0.315848
	-0.318747
	-0.332920
	-0.295554
	-0.270106
	-0.224686
	-0.203103
	-0.191507
	-0.191185
	-0.183776
	-0.187319
	-0.183776
	-0.181843
	-0.183776
	-0.183131
	-0.187963
	-0.185064
	-0.186030
	-0.187963
	-0.216955
	-0.234350
	-0.236604
	-0.270750
	-0.294587
	-0.301996
	-0.265596
	-0.247557
	-0.240792
	-0.236282
	-0.235316
	-0.234350
	-0.236282
	-0.230484
	-0.233061
	-0.234027
	-0.232095
	-0.233705
	-0.230162
	-0.231450
	-0.224686
	-0.228873
	-0.225974
	-0.254321
	-0.282347
	-0.284279
	-0.253999
	-0.233061
	-0.227263
	-0.220498
	-0.218565
	-0.221464
	-0.215666
	-0.204392
	-0.106143
	-0.066521
	-0.045583
	-0.041395
	-0.037852
	-0.022068
	0.059431
	0.097442
	0.108716
	0.087778
	0.059431
	0.056209
	0.091966
	0.111937
	0.155747
	0.168632
	0.179262
	0.177652
	0.183450
	0.181517
	0.178618
	0.183128
	0.210831
	0.225971
	0.229514
	0.235312
	0.237245
	0.235312
	0.237567
	0.202133
	0.175397
	0.167988
	0.201167
	0.220495
	0.227259
	0.231125
	0.227904
	0.231125
	0.231125
	0.230158
	0.230158
	0.224682
	0.226293
	0.219206
	0.223716
	0.221783
	0.223072
	0.223716
	0.224038
	0.160579
	-0.078440
	-0.173145
	-0.185064
	-0.177655
	-0.175400
	-0.178944
	-0.214056
	-0.226941
	-0.229518
	-0.234994
	-0.231128
	-0.243369
	-0.273005
	-0.290400
	-0.292332
	-0.293621
	-0.291366
	-0.299097
	-0.365777
	-0.418928
	-0.457584
	-0.464026
	-0.436645
	-0.415385
	-0.406688
	-0.407332
	-0.401534
	-0.404433
	-0.398634
	-0.399923
	-0.396379
	-0.398312
	-0.399279
	-0.396057
	-0.397990
	-0.393158
	-0.392836
	-0.389937
	-0.388004
	-0.414419
	-0.439222
	-0.447598
	-0.412164
	-0.395413
	-0.383817
	-0.383172
	-0.378340
	-0.377374
	-0.378018
	-0.351282
	-0.226296
	-0.167347
	-0.145120
	-0.138356
	-0.129980
	-0.131913
	-0.124826
	-0.131913
	-0.161549
	-0.202781
	-0.236604
	-0.243691
	-0.214378
	-0.193117
	-0.187963
	-0.186675
	-0.220176
	-0.231450
	-0.235960
	-0.236927
	-0.237249
	-0.241758
	-0.239504
	-0.241114
	-0.236282
	-0.238859
	-0.232739
	-0.234027
	-0.234350
	-0.258831
	-0.290400
	-0.292977
	-0.263341
	-0.240148
	-0.234672
	-0.229196
	-0.226296
	-0.228551
	-0.225330
	-0.226619
	-0.224041
	-0.227907
	-0.223719
	-0.225652
	-0.225008
	-0.221142
	-0.221142
	-0.219210
	-0.220176
	-0.224686
	-0.125148
	-0.075219
	-0.018202
	0.007246
	0.024319
	0.039137
	0.123212
	0.159290
	0.173786
	0.180229
	0.178296
	0.186671
	0.215341
	0.229514
	0.237567
	0.235957
	0.241755
	0.242399
	0.277189
	0.259150
	0.236279
	0.230481
	0.261727
	0.282343
	0.289430
	0.294262
	0.290074
	0.293618
	0.293618
	0.292651
	0.291685
	0.286531
	0.289752
	0.282021
	0.286209
	0.285242
	0.283310
	0.285242
	0.282021
	0.255607
	0.221783
	0.217595
	0.247553
	0.264948
	0.276545
	0.273968
	0.277511
	0.275578
	0.275901
	0.239500
	0.028506
	-0.060401
	-0.103244
	-0.119672
	-0.124182
	-0.126759
	-0.124826
	-0.126759
	-0.122249
	-0.151563
	-0.180232
	-0.182165
	-0.156395
	-0.133524
	-0.126759
	-0.128048
	-0.158005
	-0.172179
	-0.175078
	-0.181521
	-0.178299
	-0.182165
	-0.183453
	-0.184420
	-0.183131
	-0.180554
	-0.182809
	-0.176689
	-0.178299
	-0.204070
	-0.228873
	-0.237249
	-0.205680
	-0.189252
	-0.173790
	-0.175400
	-0.172179
	-0.169924
	-0.170890
	-0.168958
	-0.170890
	-0.169280
	-0.172823
	-0.172179
	-0.168313
	-0.172179
	-0.165414
	-0.167347
	-0.163804
	-0.185386
	-0.182487
	-0.172179
	-0.139644
	-0.114518
	-0.105499
	-0.102922
	-0.098412
	-0.099056
	-0.097123
	-0.106787
	-0.133846
	-0.152529
	-0.158650
	-0.159938
	-0.162193
	-0.160260
	-0.160260
	-0.156073
	-0.158328
	-0.189252
	-0.246590
	-0.268817
	-0.241114
	-0.226941
	-0.216633
	-0.216633
	-0.211156
	-0.210190
	-0.209546
	-0.208257
	-0.210834
	-0.210512
	-0.213411
	-0.209546
	-0.210190
	-0.210190
	-0.204714
	-0.208579
	-0.205358
	-0.234672
	-0.257221
	-0.265596
	-0.235316
	-0.209868
	-0.208902
	-0.202781
	-0.200526
	-0.198916
	-0.198271
	-0.175078
	-0.042684
	0.006602
	0.031406
	0.040747
	0.042036
	0.060719
	0.140285
	0.179262
	0.191181
	0.162512
	0.138996
	0.131587
	0.166377
	0.192147
	0.234990
	0.251741
	0.255284
	0.261405
	0.259150
	0.261405
	0.261405
	0.261083
	0.292651
	0.302315
	0.311335
	0.309402
	0.314234
	0.312623
	0.308758
	0.277833
	0.246587
	0.242721
	0.272679
	0.296195
	0.303926
	0.301993
	0.306503
	0.302315
	0.305214
	0.301349
	0.303926
	0.300382
	0.296195
	0.297161
	0.292973
	0.294262
	0.295550
	0.295873
	0.293940
	0.220495
	-0.008216
	-0.110653
	-0.113874
	-0.109364
	-0.105499
	-0.111941
	-0.144798
	-0.156717
	-0.164448
	-0.162515
	-0.165414
	-0.175078
	-0.204714
	-0.221787
	-0.223719
	-0.226296
	-0.221464
	-0.235316
	-0.300064
	-0.352892
	-0.394447
	-0.399923
	-0.369643
	-0.350960
	-0.340652
	-0.340329
	-0.335497
	-0.337430
	-0.332276
	-0.331310
	-0.332920
	-0.331954
	-0.333565
	-0.332598
	-0.332276
	-0.330666
	-0.326156
	-0.328733
	-0.323257
	-0.355469
	-0.378662
	-0.381562
	-0.352892
	-0.330988
	-0.323579
	-0.317136
	-0.317136
	-0.316170
	-0.311660
	-0.275904
	-0.083272
	-0.003062
	0.032050
	0.042680
	0.048156
	0.054921
	0.053310
	0.056854
	0.057176
	0.025929
	-0.002418
	-0.008860
	0.023674
	0.057176
	0.148338
	0.185060
	0.199234
	0.205032
	0.205032
	0.207609
	0.210509
	0.205999
	0.205032
	0.200201
	0.205355
	0.201811
	0.204388
	0.205355
	0.202133
	0.173464
	0.140607
	0.136419
	0.162834
	0.186027
	0.197623
	0.195046
	0.200845
	0.197946
	0.200845
	0.198912
	0.198590
	0.196657
	0.191181
	0.194080
	0.193436
	0.190859
	0.196979
	0.190215
	0.192792
	0.145117
	0.036882
	-0.003384
	0.009501
	0.028184
	0.033016
	0.037848
	0.039781
	0.035915
	0.040103
	0.052022
	0.133520
	0.165411
	0.178618
	0.184416
	0.183450
	0.188282
	0.187638
	0.188282
	0.189892
	0.160257
	0.165411
	0.168954
	0.209220
	0.232413
	0.240467
	0.245943
	0.244976
	0.245943
	0.244976
	0.245298
	0.244654
	0.238856
	0.241755
	0.236923
	0.239822
	0.238534
	0.238534
	0.238534
	0.234668
	0.206643
	0.175397
	0.168310
	0.197623
	0.216629
	0.230158
	0.229514
	0.233058
	0.231125
	0.229514
	0.207932
	0.096475
	0.047512
	0.027218
	0.012400
	0.013689
	0.010145
	0.012722
	0.012400
	0.009823
	0.000481
	0.046868
	0.075537
	0.119669
	0.144150
	0.159612
	0.160257
	0.165411
	0.164122
	0.163800
	0.171531
	0.199878
	0.214374
	0.218884
	0.219206
	0.220495
	0.217595
	0.221783
	0.217273
	0.221139
	0.190215
	0.157358
	0.150593
	0.177652
	0.202778
	0.211475
	0.214374
	0.217273
	0.212764
	0.218240
	0.214052
	0.214052
	0.212441
	0.208576
	0.209864
	0.205355
	0.209864
	0.210831
	0.206643
	0.210186
	0.137708
	-0.060723
	-0.144476
	-0.146731
	-0.135134
	-0.133846
	-0.136101
	-0.168958
	-0.180232
	-0.184420
	-0.189574
	-0.187319
	-0.200848
	-0.227907
	-0.245946
	-0.247235
	-0.248845
	-0.249490
	-0.259798
	-0.323901
	-0.373831
	-0.414096
	-0.424082
	-0.396057
	-0.378662
	-0.364489
	-0.363200
	-0.359979
	-0.359657
	-0.355469
	-0.354503
	-0.357080
	-0.354503
	-0.357724
	-0.354825
	-0.353859
	-0.351926
	-0.349671
	-0.350637
	-0.345161
	-0.375441
	-0.399601
	-0.407010
	-0.375441
	-0.356114
	-0.344517
	-0.337752
	-0.340329
	-0.336142
	-0.336464
	-0.290722
	-0.103566
	-0.020779
	0.012078
	0.020131
	0.029795
	0.028829
	0.034627
	0.034305
	0.035915
	0.007246
	-0.025611
	-0.028832
	-0.003062
	0.039781
	0.125467
	0.163478
	0.180229
	0.181517
	0.188604
	0.184738
	0.189248
	0.185060
	0.182806
	0.182483
	0.180873
	0.183772
	0.181517
	0.183128
	0.183128
	0.152526
	0.123534
	0.111937
	0.143828
	0.164122
	0.177329
	0.179584
	0.178296
	0.178296
	0.177329
	0.180229
	0.177329
	0.176685
	0.175397
	0.171531
	0.175075
	0.172498
	0.176363
	0.171209
	0.176363
	0.126111
	0.019809
	-0.023034
	-0.009183
	0.008534
	0.013366
	0.036560
	0.111293
	0.148982
	0.161867
	0.169598
	0.167988
	0.167988
	0.167988
	0.168954
	0.205677
	0.215985
	0.225326
	0.225004
	0.230158
	0.201811
	0.169598
	0.167666
	0.221783
	0.262371
	0.275578
	0.282021
	0.282343
	0.283310
	0.285242
	0.281377
	0.281699
	0.276867
	0.278155
	0.272357
	0.275256
	0.273324
	0.274934
	0.275256
	0.271069
	0.247875
	0.211153
	0.205032
	0.230481
	0.256573
	0.264948
	0.266237
	0.272035
	0.266559
	0.269136
	0.215663
	0.017554
	-0.076507
	-0.109686
	-0.124826
	-0.133202
	-0.132557
	-0.135134
	-0.131591
	-0.134490
	-0.155428
	-0.184098
	-0.196016
	-0.166059
	-0.144798
	-0.132235
	-0.140611
	-0.164770
	-0.179910
	-0.184742
	-0.184742
	-0.188285
	-0.187963
	-0.192151
	-0.189252
	-0.190218
	-0.189896
	-0.184742
	-0.188930
	-0.183453
	-0.210834
	-0.236282
	-0.245624
	-0.219854
	-0.192473
	-0.186675
	-0.179588
	-0.180232
	-0.177333
	-0.177333
	-0.177011
	-0.174434
	-0.180232
	-0.176689
	-0.179910
	-0.177655
	-0.177011
	-0.174756
	-0.172823
	-0.175722
	-0.170246
	-0.111619
	-0.077474
	-0.033664
	-0.005961
	0.009179
	0.028506
	0.113226
	0.145761
	0.158646
	0.166055
	0.164766
	0.174108
	0.199556
	0.216629
	0.223072
	0.222105
	0.226615
	0.230158
	0.263660
	0.245621
	0.223394
	0.212119
	0.242077
	0.268170
	0.276223
	0.279444
	0.279444
	0.280733
	0.275901
	0.282021
	0.277511
	0.275901
	0.273646
	0.269136
	0.270747
	0.266881
	0.273001
	0.267203
	0.271069
	0.240467
	0.211153
	0.200523
	0.225326
	0.252063
	0.258184
	0.264948
	0.263015
	0.265592
	0.264304
	0.211797
	0.012078
