LabVIEW Measurement	
Writer_Version	2
Reader_Version	2
Separator	Tab
Decimal_Separator	.
Multi_Headings	No
X_Columns	No
Time_Pref	Absolute
Operator	orzr
Date	2022/04/28
Time	13:22:48.4073951499427236679
***End_of_Header***	
	
Channels	1	
Samples	20000	
Date	2022/04/28	
Time	13:22:48.4073951499427236679	
Y_Unit_Label	Volts	
X_Dimension	Time	
X0	0.0000000000000000E+0	
Delta_X	0.001000	
***End_of_Header***		
X_Value	Voltage	Comment
	0.699822
	0.752973
	0.777133
	0.816110
	0.829962
	0.835438
	0.845102
	0.875382
	0.891811
	0.923379
	0.950438
	1.015831
	1.048366
	1.057385
	1.071881
	1.098618
	1.122133
	1.153702
	1.174318
	1.167232
	1.136629
	1.114080
	1.117946
	1.136951
	1.150481
	1.148226
	1.150481
	1.142750
	1.144682
	1.133730
	1.143394
	1.167876
	1.182050
	1.179795
	1.184627
	1.177862
	1.185593
	1.213296
	1.245509
	1.296084
	1.293829
	1.284165
	1.280299
	1.272568
	1.271280
	1.265481
	1.249697
	1.183982
	1.143716
	1.095397
	1.066083
	1.023884
	0.997147
	0.959780
	0.922735
	0.849612
	0.817721
	0.806446
	0.796460
	0.752007
	0.692091
	0.639584
	0.597063
	0.526839
	0.483029
	0.441152
	0.411194
	0.373505
	0.342259
	0.305536
	0.266237
	0.199878
	0.162512
	0.121601
	0.091966
	0.056532
	0.032694
	0.003703
	-0.027544
	-0.117417
	-0.210190
	-0.299741
	-0.358368
	-0.435679
	-0.484320
	-0.557765
	-0.598031
	-0.639907
	-0.682106
	-0.784542
	-0.833827
	-0.882469
	-0.924345
	-1.022916
	-1.068980
	-1.118265
	-1.146612
	-1.203950
	-1.229076
	-1.283193
	-1.353417
	-1.441679
	-1.491287
	-1.567308
	-1.610151
	-1.685851
	-1.716453
	-1.758973
	-1.795373
	-1.894266
	-1.922935
	-1.911339
	-1.893944
	-1.889112
	-1.878160
	-1.877193
	-1.852712
	-1.803427
	-1.753175
	-1.699702
	-1.703568
	-1.712587
	-1.706467
	-1.708399
	-1.698091
	-1.698736
	-1.681985
	-1.651061
	-1.630445
	-1.626257
	-1.614661
	-1.614983
	-1.604675
	-1.603064
	-1.585347
	-1.551202
	-1.515446
	-1.464228
	-1.427828
	-1.433304
	-1.468094
	-1.486455
	-1.460685
	-1.370167
	-1.316695
	-1.267409
	-1.234875
	-1.193320
	-1.164651
	-1.124385
	-1.082187
	-0.977496
	-0.921124
	-0.867651
	-0.828029
	-0.752330
	-0.699823
	-0.609305
	-0.555510
	-0.490441
	-0.481743
	-0.421505
	-0.388971
	-0.342584
	-0.320358
	-0.278159
	-0.237571
	-0.137711
	-0.088104
	-0.038496
	-0.013692
	0.031083
	0.065873
	0.153814
	0.209220
	0.319388
	0.381559
	0.468533
	0.531026
	0.625088
	0.639584
	0.676306
	0.710452
	0.807413
	0.853477
	0.903407
	0.934010
	1.005522
	1.047399
	1.118268
	1.161433
	1.234557
	1.271602
	1.313157
	1.355033
	1.449096
	1.507079
	1.582458
	1.641086
	1.727417
	1.749000
	1.779280
	1.816325
	1.903945
	1.954520
	1.992209
	2.010249
	2.009604
	2.012504
	2.001229
	1.998974
	1.989954
	1.977391
	1.939057
	1.924884
	1.909099
	1.916508
	1.935514
	1.948077
	1.933903
	1.888161
	1.806983
	1.770583
	1.751899
	1.740946
	1.733860
	1.729350
	1.722263
	1.705512
	1.671366
	1.648817
	1.639475
	1.632388
	1.630133
	1.622724
	1.619825
	1.615637
	1.612416
	1.600175
	1.557009
	1.488396
	1.406252
	1.355356
	1.308647
	1.255817
	1.158212
	1.099262
	1.050298
	1.015831
	0.974276
	0.943351
	0.905984
	0.857987
	0.758127
	0.704654
	0.653113
	0.634107
	0.627987
	0.609948
	0.531348
	0.453715
	0.362553
	0.317777
	0.266237
	0.230481
	0.158646
	0.122890
	0.074249
	0.035593
	-0.071031
	-0.112263
	-0.130947
	-0.156395
	-0.234994
	-0.274615
	-0.320035
	-0.332598
	-0.329377
	-0.328089
	-0.341296
	-0.396702
	-0.473368
	-0.516533
	-0.557121
	-0.588045
	-0.620258
	-0.637330
	-0.641518
	-0.654081
	-0.682428
	-0.716896
	-0.779066
	-0.816755
	-0.852833
	-0.867973
	-0.871516
	-0.866684
	-0.852833
	-0.854766
	-0.898575
	-0.964933
	-1.046109
	-1.063504
	-1.012608
	-0.981361
	-0.942062
	-0.909849
	-0.871838
	-0.852833
	-0.847357
	-0.831573
	-0.800971
	-0.762638
	-0.696279
	-0.652148
	-0.609627
	-0.569362
	-0.524908
	-0.487219
	-0.470469
	-0.479166
	-0.459516
	-0.428592
	-0.368354
	-0.332920
	-0.323579
	-0.306184
	-0.274615
	-0.251744
	-0.218243
	-0.178944
	-0.097768
	-0.059434
	-0.043328
	-0.019813
	0.043646
	0.097764
	0.173786
	0.216629
	0.246265
	0.226293
	0.220495
	0.232091
	0.290718
	0.321965
	0.365452
	0.387357
	0.428267
	0.439542
	0.445662
	0.452427
	0.485606
	0.495592
	0.505256
	0.521362
	0.582889
	0.622189
	0.667609
	0.690480
	0.714317
	0.692735
	0.685004
	0.688869
	0.716250
	0.726236
	0.731390
	0.728813
	0.727847
	0.716895
	0.679528
	0.665354
	0.656334
	0.646993
	0.611558
	0.602217
	0.589332
	0.586754
	0.555186
	0.545522
	0.519430
	0.479164
	0.426657
	0.408295
	0.396377
	0.383491
	0.350634
	0.328085
	0.289108
	0.254962
	0.185705
	0.155103
	0.144795
	0.128366
	0.097764
	0.073926
	0.038814
	0.018198
	-0.007894
	-0.045905
	-0.140288
	-0.223075
	-0.281702
	-0.318747
	-0.354503
	-0.393158
	-0.455007
	-0.495272
	-0.535216
	-0.564208
	-0.599319
	-0.626700
	-0.659879
	-0.692092
	-0.758128
	-0.791307
	-0.833183
	-0.839626
	-0.837371
	-0.836727
	-0.889555
	-0.952370
	-1.034190
	-1.072201
	-1.117943
	-1.142747
	-1.183334
	-1.212004
	-1.279328
	-1.311863
	-1.353739
	-1.369845
	-1.374999
	-1.371778
	-1.369523
	-1.363081
	-1.360182
	-1.347941
	-1.326358
	-1.317983
	-1.332479
	-1.370812
	-1.383375
	-1.390784
	-1.384985
	-1.394327
	-1.419131
	-1.430727
	-1.430083
	-1.432982
	-1.427184
	-1.428794
	-1.421063
	-1.436203
	-1.487421
	-1.512225
	-1.514480
	-1.499018
	-1.450377
	-1.428472
	-1.439747
	-1.486133
	-1.525110
	-1.542827
	-1.545082
	-1.554746
	-1.581160
	-1.600165
	-1.630123
	-1.660081
	-1.724506
	-1.746410
	-1.756396
	-1.762194
	-1.790864
	-1.806004
	-1.838860
	-1.833706
	-1.825009
	-1.809869
	-1.833062
	-1.888468
	-1.964489
	-1.998957
	-2.039867
	-2.059838
	-2.094950
	-2.100748
	-2.107191
	-2.111379
	-2.141014
	-2.165173
	-2.227988
	-2.253436
	-2.292413
	-2.292091
	-2.262777
	-2.205761
	-2.087863
	-2.021828
	-1.993158
	-2.012164
	-2.016029
	-2.004755
	-1.968677
	-1.943873
	-1.901031
	-1.863342
	-1.787965
	-1.756396
	-1.737713
	-1.722573
	-1.681019
	-1.653960
	-1.610795
	-1.583093
	-1.539606
	-1.502239
	-1.442324
	-1.397226
	-1.348907
	-1.348585
	-1.319272
	-1.297367
	-1.258390
	-1.238740
	-1.229398
	-1.192998
	-1.100226
	-1.045464
	-1.003266
	-0.967510
	-0.929821
	-0.896320
	-0.857665
	-0.806769
	-0.710131
	-0.629599
	-0.544558
	-0.480455
	-0.428592
	-0.422150
	-0.395091
	-0.361590
	-0.296520
	-0.248523
	-0.173468
	-0.135779
	-0.089392
	-0.062978
	-0.025611
	0.014333
	0.116125
	0.164122
	0.212441
	0.241755
	0.282665
	0.339038
	0.458869
	0.523295
	0.582567
	0.588687
	0.621222
	0.639261
	0.673729
	0.702077
	0.769402
	0.802581
	0.845746
	0.866362
	0.905018
	0.922091
	0.958491
	0.990704
	1.056097
	1.087988
	1.130831
	1.170453
	1.236812
	1.274501
	1.291574
	1.295439
	1.351490
	1.380160
	1.417527
	1.440398
	1.472289
	1.492583
	1.525441
	1.555399
	1.614027
	1.639153
	1.644307
	1.646884
	1.642374
	1.643018
	1.633355
	1.631422
	1.595021
	1.579881
	1.547990
	1.515132
	1.493550
	1.485174
	1.475832
	1.464236
	1.424614
	1.413339
	1.398199
	1.394011
	1.383381
	1.382737
	1.374039
	1.364375
	1.330874
	1.316378
	1.306070
	1.320566
	1.345692
	1.354711
	1.335706
	1.294795
	1.248730
	1.235523
	1.257106
	1.259683
	1.263226
	1.271280
	1.298339
	1.300916
	1.306392
	1.309613
	1.338605
	1.347947
	1.352134
	1.368241
	1.427513
	1.468423
	1.503858
	1.526729
	1.538326
	1.521253
	1.510623
	1.514488
	1.535105
	1.547023
	1.544124
	1.565385
	1.619503
	1.643341
	1.643663
	1.655904
	1.677164
	1.691338
	1.689083
	1.691016
	1.685540
	1.701324
	1.724196
	1.729350
	1.711955
	1.670722
	1.627234
	1.602108
	1.594055
	1.583102
	1.579881
	1.574082
	1.569895
	1.539937
	1.477443
	1.443297
	1.431056
	1.423969
	1.415916
	1.414628
	1.406896
	1.416560
	1.405608
	1.404319
	1.378227
	1.348913
	1.327975
	1.323465
	1.313479
	1.301882
	1.265803
	1.233912
	1.163044
	1.120845
	1.077357
	1.040957
	1.005200
	0.974598
	0.938842
	0.896320
	0.828351
	0.806446
	0.795172
	0.775522
	0.722371
	0.663421
	0.615746
	0.572903
	0.504290
	0.465634
	0.420536
	0.389934
	0.350312
	0.323576
	0.279766
	0.247553
	0.178618
	0.142862
	0.099052
	0.075537
	0.033338
	0.024641
	-0.011437
	-0.046549
	-0.152529
	-0.226619
	-0.286534
	-0.318747
	-0.358691
	-0.394125
	-0.459516
	-0.497849
	-0.537793
	-0.566785
	-0.600286
	-0.629277
	-0.660201
	-0.697246
	-0.758450
	-0.787119
	-0.795172
	-0.772623
	-0.733968
	-0.720117
	-0.738156
	-0.781965
	-0.819010
	-0.839304
	-0.841559
	-0.841559
	-0.839626
	-0.841559
	-0.834472
	-0.846068
	-0.875060
	-0.886656
	-0.887300
	-0.900186
	-0.921768
	-0.953981
	-1.013896
	-1.020983
	-1.022593
	-1.022916
	-1.050618
	-1.094428
	-1.140492
	-1.176248
	-1.240673
	-1.275140
	-1.317017
	-1.314118
	-1.295756
	-1.259034
	-1.196864
	-1.153377
	-1.110534
	-1.082831
	-1.075744
	-1.054484
	-1.021949
	-0.951081
	-0.851544
	-0.790018
	-0.774878
	-0.785186
	-0.789696
	-0.768758
	-0.710453
	-0.660846
	-0.586434
	-0.545202
	-0.501071
	-0.472401
	-0.434713
	-0.391225
	-0.290400
	-0.241436
	-0.189896
	-0.158972
	-0.119028
	-0.052348
	0.062974
	0.129977
	0.181839
	0.193758
	0.225326
	0.246909
	0.281377
	0.297483
	0.299738
	0.324864
	0.381237
	0.417637
	0.452105
	0.483673
	0.513309
	0.531670
	0.536180
	0.550354
	0.576124
	0.637973
	0.727203
	0.774878
	0.796460
	0.781965
	0.777777
	0.781965
	0.810634
	0.827063
	0.864752
	0.895032
	0.961713
	0.986195
	0.994248
	0.993926
	0.992637
	0.971055
	0.905662
	0.869906
	0.825774
	0.822875
	0.809668
	0.807091
	0.775522
	0.735900
	0.691768
	0.651180
	0.581278
	0.543911
	0.498813
	0.479808
	0.471755
	0.453071
	0.420858
	0.392511
	0.358688
	0.317133
	0.257861
	0.226293
	0.217273
	0.228548
	0.228226
	0.214052
	0.157035
	0.094543
	0.014655
	-0.043650
	-0.134490
	-0.177011
	-0.224686
	-0.251100
	-0.291688
	-0.324223
	-0.395413
	-0.432780
	-0.472724
	-0.499138
	-0.531995
	-0.555832
	-0.590300
	-0.598031
	-0.623479
	-0.619935
	-0.591910
	-0.602541
	-0.600608
	-0.607373
	-0.600608
	-0.601574
	-0.599319
	-0.586756
	-0.552611
	-0.542625
	-0.535860
	-0.533283
	-0.531029
	-0.527163
	-0.526841
	-0.522653
	-0.522009
	-0.498494
	-0.497527
	-0.490763
	-0.523620
	-0.574516
	-0.646994
	-0.674697
	-0.688226
	-0.699501
	-0.728492
	-0.738478
	-0.742666
	-0.753618
	-0.785509
	-0.787441
	-0.758450
	-0.746531
	-0.737834
	-0.734290
	-0.729136
	-0.699179
	-0.658269
	-0.635720
	-0.629599
	-0.648283
	-0.650860
	-0.656658
	-0.651826
	-0.653115
	-0.648927
	-0.624123
	-0.563885
	-0.526519
	-0.487219
	-0.456617
	-0.423116
	-0.391225
	-0.354825
	-0.312949
	-0.249812
	-0.174434
	-0.107431
	-0.063300
	-0.053636
	-0.033342
	0.028829
	0.094865
	0.190859
	0.246265
	0.291685
	0.343870
	0.437287
	0.488183
	0.531670
	0.579668
	0.677917
	0.725270
	0.771012
	0.810956
	0.877959
	0.948505
	1.048688
	1.106349
	1.155313
	1.167876
	1.200089
	1.240033
	1.329263
	1.376616
	1.417849
	1.467457
	1.557332
	1.605651
	1.642374
	1.694559
	1.779280
	1.830499
	1.868511
	1.887838
	1.887194
	1.912321
	1.929071
	1.934548
	1.912965
	1.873665
	1.830499
	1.806017
	1.797964
	1.785078
	1.782824
	1.774126
	1.770260
	1.738047
	1.677809
	1.642052
	1.629489
	1.621758
	1.616926
	1.611450
	1.605973
	1.615637
	1.602752
	1.599209
	1.565063
	1.541547
	1.522864
	1.518032
	1.508046
	1.494194
	1.460692
	1.432345
	1.392723
	1.349557
	1.279333
	1.231980
	1.192036
	1.133408
	1.041601
	0.985228
	0.940130
	0.929178
	0.919836
	0.899542
	0.838981
	0.763925
	0.656012
	0.598029
	0.544878
	0.516853
	0.471755
	0.437287
	0.367707
	0.316811
	0.242077
	0.202778
	0.157680
	0.118058
	0.055243
	0.014977
	-0.023356
	-0.047516
	-0.108076
	-0.140611
	-0.178299
	-0.244658
	-0.325834
	-0.374797
	-0.418284
	-0.447920
	-0.479166
	-0.495272
	-0.502037
	-0.527485
	-0.587723
	-0.624123
	-0.663423
	-0.686294
	-0.721083
	-0.729459
	-0.736867
	-0.713352
	-0.714319
	-0.732036
	-0.827063
	-0.886334
	-0.935942
	-0.955591
	-0.962678
	-0.976529
	-1.001977
	-1.027103
	-1.056417
	-1.094105
	-1.154987
	-1.158531
	-1.104736
	-1.084764
	-1.069624
	-1.063504
	-1.058349
	-1.019372
	-0.981361
	-0.968154
	-0.995857
	-1.019694
	-1.030325
	-1.032257
	-1.033224
	-1.027425
	-1.029036
	-1.010353
	-0.981039
	-0.964289
	-0.962356
	-0.954625
	-0.952692
	-0.945283
	-0.939485
	-0.936908
	-0.936586
	-0.897286
	-0.861530
	-0.850256
	-0.873771
	-0.903085
	-0.910171
	-0.904373
	-0.869584
	-0.846390
	-0.809024
	-0.793562
	-0.783254
	-0.758450
	-0.695635
	-0.656336
	-0.615426
	-0.594810
	-0.586434
	-0.568717
	-0.539404
	-0.486897
	-0.454040
	-0.423438
	-0.424727
	-0.409909
	-0.360301
	-0.332920
	-0.328411
	-0.307150
	-0.278481
	-0.250456
	-0.217599
	-0.201170
	-0.198271
	-0.166059
	-0.091003
	-0.060401
	-0.044294
	-0.015625
	0.044291
	0.112260
	0.183772
	0.218240
	0.228226
	0.216307
	0.213408
	0.232735
	0.292329
	0.324220
	0.363842
	0.392189
	0.424724
	0.438575
	0.441475
	0.455326
	0.482707
	0.498813
	0.500102
	0.527161
	0.582245
	0.639906
	0.668253
	0.696600
	0.693701
	0.685326
	0.678561
	0.686937
	0.711096
	0.724626
	0.726881
	0.724948
	0.727525
	0.708197
	0.678239
	0.658589
	0.654724
	0.637329
	0.610592
	0.594486
	0.589654
	0.592553
	0.561306
	0.541979
	0.502679
	0.463701
	0.419248
	0.403785
	0.391222
	0.377693
	0.343225
	0.320032
	0.280088
	0.245621
	0.175719
	0.148982
	0.138030
	0.121923
	0.092288
	0.066517
	0.033983
	0.025607
	-0.004995
	-0.057180
	-0.164126
	-0.250456
	-0.329377
	-0.391225
	-0.459516
	-0.514600
	-0.583535
	-0.620258
	-0.664711
	-0.716896
	-0.811601
	-0.860564
	-0.907917
	-0.955269
	-1.049008
	-1.094105
	-1.139203
	-1.152732
	-1.212970
	-1.248404
	-1.327647
	-1.394327
	-1.465517
	-1.519634
	-1.585670
	-1.636565
	-1.701635
	-1.741901
	-1.774435
	-1.828230
	-1.915848
	-1.940008
	-1.918425
	-1.911983
	-1.898454
	-1.895232
	-1.887823
	-1.842404
	-1.798917
	-1.759617
	-1.732237
	-1.731270
	-1.729338
	-1.725472
	-1.723539
	-1.713876
	-1.712587
	-1.692615
	-1.663302
	-1.645263
	-1.640753
	-1.628834
	-1.625613
	-1.617882
	-1.613372
	-1.593723
	-1.559577
	-1.503528
	-1.458430
	-1.442002
	-1.470349
	-1.498374
	-1.501917
	-1.467772
	-1.377254
	-1.328613
	-1.276107
	-1.243894
	-1.201696
	-1.174637
	-1.135982
	-1.081220
	-0.982328
	-0.926278
	-0.876670
	-0.828029
	-0.761671
	-0.680173
	-0.608661
	-0.553900
	-0.525874
	-0.492051
	-0.435357
	-0.394769
	-0.357402
	-0.324223
	-0.291044
	-0.233061
	-0.144798
	-0.090359
	-0.051381
	-0.014981
	0.016910
	0.067484
	0.144472
	0.203100
	0.271391
	0.348379
	0.415382
	0.451460
	0.459192
	0.446306
	0.445662
	0.464990
	0.520396
	0.554219
	0.595452
	0.618645
	0.656012
	0.663743
	0.668253
	0.677917
	0.710130
	0.742021
	0.807091
	0.842203
	0.879570
	0.923057
	0.956559
	0.973632
	0.975886
	0.975886
	0.998436
	1.032903
	1.091209
	1.115691
	1.122778
	1.138562
	1.162400
	1.173996
	1.169486
	1.172063
	1.167554
	1.167876
	1.163688
	1.177540
	1.196223
	1.238100
	1.260971
	1.269991
	1.238744
	1.215873
	1.204276
	1.206854
	1.235201
	1.240033
	1.244543
	1.239711
	1.239389
	1.229725
	1.227148
	1.245831
	1.301238
	1.318955
	1.331196
	1.328619
	1.329907
	1.353101
	1.376616
	1.347947
	1.268380
	1.204599
	1.155957
	1.117301
	1.080901
	1.047399
	1.012287
	0.967189
	0.897931
	0.853799
	0.810956
	0.778421
	0.739121
	0.712385
	0.672763
	0.633463
	0.569037
	0.563239
	0.544233
	0.526194
	0.455004
	0.408295
	0.360942
	0.316811
	0.250130
	0.211797
	0.169920
	0.140929
	0.106139
	0.061363
	-0.002418
	-0.063300
	-0.140288
	-0.204070
	-0.269139
	-0.328089
	-0.392836
	-0.411519
	-0.446309
	-0.483354
	-0.553900
	-0.635398
	-0.731391
	-0.788408
	-0.833183
	-0.889233
	-0.976529
	-1.026781
	-1.069624
	-1.125674
	-1.221023
	-1.269342
	-1.314118
	-1.353417
	-1.417520
	-1.461329
	-1.527043
	-1.531552
	-1.566020
	-1.592434
	-1.668778
	-1.744478
	-1.841759
	-1.868496
	-1.853678
	-1.846269
	-1.835961
	-1.833384
	-1.824043
	-1.824043
	-1.818244
	-1.790219
	-1.724184
	-1.698414
	-1.678442
	-1.671033
	-1.660725
	-1.613050
	-1.570852
	-1.547659
	-1.555712
	-1.564087
	-1.566986
	-1.564731
	-1.563765
	-1.554423
	-1.555068
	-1.533485
	-1.503205
	-1.485489
	-1.480979
	-1.471637
	-1.467127
	-1.462940
	-1.454564
	-1.412688
	-1.320882
	-1.227788
	-1.145968
	-1.106991
	-1.102481
	-1.097327
	-1.068013
	-1.015829
	-0.921768
	-0.865396
	-0.821587
	-0.769724
	-0.707554
	-0.663100
	-0.627344
	-0.577093
	-0.517177
	-0.459194
	-0.388648
	-0.344195
	-0.301996
	-0.231773
	-0.167669
	-0.110008
	-0.047838
	-0.021423
	0.015621
	0.039459
	0.076826
	0.121923
	0.199556
	0.257539
	0.325508
	0.366741
	0.402175
	0.432777
	0.462735
	0.482707
	0.483995
	0.516530
	0.569682
	0.643449
	0.701110
	0.737833
	0.739766
	0.732035
	0.727847
	0.737189
	0.763603
	0.798715
	0.859598
	0.892455
	0.929178
	0.938519
	0.943996
	0.953337
	0.984584
	1.005522
	1.037091
	1.074780
	1.139850
	1.193968
	1.226826
	1.232624
	1.202988
	1.181083
	1.171097
	1.162722
	1.155957
	1.155313
	1.150159
	1.148548
	1.141139
	1.140495
	1.131153
	1.130509
	1.124710
	1.098296
	1.033870
	1.008099
	0.995858
	1.023562
	1.040957
	1.044178
	1.009388
	0.986517
	0.977819
	0.969122
	0.965256
	0.960424
	0.958814
	0.955592
	0.953660
	0.935620
	0.904374
	0.885368
	0.884080
	0.861531
	0.835438
	0.819332
	0.815788
	0.828673
	0.824164
	0.787119
	0.693701
	0.646026
	0.625410
	0.601250
	0.566460
	0.541656
	0.502035
	0.489472
	0.477875
	0.463057
	0.426334
	0.416993
	0.407973
	0.380592
	0.320354
	0.285887
	0.248198
	0.268492
	0.286209
	0.275578
	0.212119
	0.151237
	0.082302
	0.050411
	0.039459
	-0.000485
	-0.071675
	-0.117095
	-0.155106
	-0.191829
	-0.223397
	-0.240148
	-0.243369
	-0.273327
	-0.326156
	-0.366422
	-0.398634
	-0.390581
	-0.391870
	-0.405399
	-0.441155
	-0.480132
	-0.516533
	-0.560986
	-0.621546
	-0.659557
	-0.697568
	-0.708520
	-0.717540
	-0.730103
	-0.763604
	-0.784542
	-0.818043
	-0.851544
	-0.911460
	-0.932398
	-0.939807
	-0.898897
	-0.867329
	-0.863463
	-0.895676
	-0.934009
	-0.966866
	-0.983938
	-0.983616
	-0.987160
	-0.981683
	-0.980073
	-0.978462
	-0.993280
	-1.022593
	-1.031935
	-1.034512
	-1.030002
	-1.029036
	-1.022916
	-1.020661
	-1.000045
	-1.025171
	-1.037411
	-1.087019
	-1.110212
	-1.116976
	-1.116976
	-1.117621
	-1.129217
	-1.152088
	-1.151444
	-1.121808
	-1.084442
	-1.022593
	-0.982006
	-0.934653
	-0.904695
	-0.860886
	-0.817399
	-0.746853
	-0.665355
	-0.595132
	-0.563563
	-0.560664
	-0.553577
	-0.527163
	-0.487541
	-0.425371
	-0.384139
	-0.345161
	-0.311660
	-0.281702
	-0.249812
	-0.220498
	-0.172179
	-0.115162
	-0.071353
	-0.033342
	-0.001774
	0.034627
	0.128366
	0.223716
	0.301349
	0.362553
	0.395088
	0.430522
	0.485284
	0.573869
	0.622511
	0.666965
	0.724303
	0.813855
	0.858631
	0.901152
	0.939164
	1.002945
	1.054164
	1.123744
	1.175607
	1.244543
	1.314445
	1.372751
	1.430090
	1.486141
	1.516743
	1.547346
	1.602430
	1.683607
	1.734826
	1.770583
	1.828244
	1.906522
	1.956130
	1.988344
	2.004772
	2.003806
	2.006705
	1.999296
	1.998974
	1.995431
	2.004450
	1.989310
	1.975136
	1.936158
	1.912643
	1.903301
	1.890738
	1.885906
	1.848538
	1.790877
	1.758019
	1.747711
	1.733215
	1.726773
	1.719041
	1.715498
	1.695204
	1.665246
	1.651716
	1.643341
	1.667500
	1.682318
	1.679097
	1.644951
	1.612094
	1.569895
	1.537359
	1.497737
	1.453605
	1.383703
	1.344403
	1.296406
	1.234557
	1.139528
	1.086055
	1.037413
	1.006811
	0.967189
	0.937553
	0.905340
	0.876993
	0.807413
	0.751362
	0.679205
	0.621544
	0.582567
	0.530704
	0.468533
	0.408940
	0.346125
	0.302637
	0.260116
	0.212764
	0.148016
	0.106783
	0.068128
	0.013044
	-0.079406
	-0.112585
	-0.126115
	-0.127081
	-0.175722
	-0.215344
	-0.293299
	-0.340007
	-0.379951
	-0.397668
	-0.404755
	-0.435357
	-0.491407
	-0.529096
	-0.564208
	-0.595132
	-0.628311
	-0.642162
	-0.643773
	-0.662134
	-0.682106
	-0.725271
	-0.777777
	-0.774878
	-0.780355
	-0.797105
	-0.835116
	-0.872161
	-0.906628
	-0.936586
	-0.964933
	-1.007776
	-1.063504
	-1.083475
	-1.096360
	-1.097327
	-1.098293
	-1.094428
	-1.094750
	-1.100870
	-1.130506
	-1.133727
	-1.132439
	-1.085086
	-1.057705
	-1.051585
	-1.092817
	-1.124063
	-1.162074
	-1.170449
	-1.177536
	-1.173993
	-1.172382
	-1.169805
	-1.167550
	-1.192676
	-1.248726
	-1.265477
	-1.270631
	-1.270631
	-1.266443
	-1.263866
	-1.254846
	-1.222634
	-1.216836
	-1.213614
	-1.224244
	-1.203950
	-1.149511
	-1.113433
	-1.066725
	-1.036767
	-0.995213
	-0.952370
	-0.886012
	-0.849612
	-0.806447
	-0.774556
	-0.736545
	-0.704011
	-0.667932
	-0.621868
	-0.550678
	-0.469502
	-0.405399
	-0.372220
	-0.374797
	-0.363200
	-0.339041
	-0.296842
	-0.240148
	-0.195372
	-0.162193
	-0.126437
	-0.095191
	-0.041395
	0.028506
	0.089066
	0.156713
	0.200523
	0.240789
	0.269780
	0.312301
	0.360620
	0.389612
	0.416671
	0.441475
	0.455648
	0.487539
	0.512021
	0.545200
	0.554542
	0.562595
	0.577413
	0.601895
	0.643127
	0.695312
	0.735256
	0.769402
	0.784542
	0.788407
	0.808379
	0.833827
	0.895676
	0.944640
	0.986839
	1.014220
	1.022917
	1.022273
	1.019696
	1.018730
	0.982651
	0.926279
	0.881825
	0.845102
	0.806124
	0.772623
	0.751362
	0.748141
	0.727847
	0.699822
	0.654724
	0.602861
	0.596096
	0.579668
	0.560340
	0.519430
	0.482707
	0.445984
	0.413127
	0.375760
	0.334206
	0.269458
	0.247875
	0.231447
	0.212119
	0.178296
	0.153492
	0.117736
	0.079080
	0.018843
	-0.042040
	-0.112908
	-0.137711
	-0.180232
	-0.240148
	-0.339363
	-0.418928
	-0.487541
	-0.538115
	-0.573871
	-0.637330
	-0.719473
	-0.775200
	-0.813211
	-0.878281
	-0.964611
	-1.014540
	-1.053840
	-1.115366
	-1.198796
	-1.250014
	-1.284482
	-1.280294
	-1.315728
	-1.367913
	-1.471637
	-1.543471
	-1.617560
	-1.656859
	-1.694226
	-1.749954
	-1.836605
	-1.848202
	-1.836283
	-1.827264
	-1.819211
	-1.814057
	-1.806326
	-1.801816
	-1.795051
	-1.760584
	-1.688428
	-1.617560
	-1.572140
	-1.569241
	-1.600165
	-1.623358
	-1.622392
	-1.610151
	-1.577939
	-1.565376
	-1.551524
	-1.549269
	-1.542183
	-1.539606
	-1.537029
	-1.516413
	-1.484200
	-1.464872
	-1.457464
	-1.447478
	-1.438136
	-1.383697
	-1.355350
	-1.306064
	-1.265477
	-1.228432
	-1.196219
	-1.161752
	-1.124707
	-1.092817
	-1.055772
	-0.991669
	-0.900830
	-0.849612
	-0.801293
	-0.754262
	-0.686938
	-0.644095
	-0.601252
	-0.555188
	-0.483032
	-0.383817
	-0.295232
	-0.251422
	-0.250778
	-0.235316
	-0.210834
	-0.151885
	-0.069420
	-0.013370
	0.024963
	0.061041
	0.092610
	0.146727
	0.214052
	0.277189
	0.342259
	0.388323
	0.426657
	0.457259
	0.496558
	0.545522
	0.573547
	0.598351
	0.621867
	0.636684
	0.666965
	0.691124
	0.725270
	0.732357
	0.739766
	0.753295
	0.779388
	0.817399
	0.873449
	0.908561
	0.943996
	0.959136
	0.959780
	0.979752
	1.011321
	1.072203
	1.115046
	1.160145
	1.182694
	1.191713
	1.191713
	1.205565
	1.229403
	1.239067
	1.240677
	1.235845
	1.236490
	1.227148
	1.223926
	1.233912
	1.259683
	1.265159
	1.269991
	1.267414
	1.272246
	1.301238
	1.317344
	1.327330
	1.317666
	1.314445
	1.303170
	1.301560
	1.296084
	1.295439
	1.287708
	1.318633
	1.367274
	1.383059
	1.386924
	1.384669
	1.384025
	1.379515
	1.381770
	1.341504
	1.295439
	1.283521
	1.265159
	1.224571
	1.162077
	1.112147
	1.070915
	1.016797
	0.952049
	0.908239
	0.867973
	0.836082
	0.794528
	0.763603
	0.725592
	0.680494
	0.618001
	0.580312
	0.542945
	0.509121
	0.482707
	0.483995
	0.472721
	0.420536
	0.329696
	0.269780
	0.228870
	0.189248
	0.156069
	0.112582
	0.050089
	0.026252
	0.013044
	-0.029799
	-0.102922
	-0.144476
	-0.186997
	-0.213733
	-0.245624
	-0.258831
	-0.253999
	-0.246913
	-0.277515
	-0.323901
	-0.390581
	-0.443410
	-0.477878
	-0.496561
	-0.500104
	-0.521043
	-0.541659
	-0.557121
	-0.558731
	-0.594165
	-0.648283
	-0.671476
	-0.676952
	-0.694347
	-0.720761
	-0.726882
	-0.721727
	-0.693380
	-0.698212
	-0.695635
	-0.710775
	-0.713996
	-0.720117
	-0.702722
	-0.676952
	-0.659235
	-0.656014
	-0.616714
	-0.562597
	-0.538437
	-0.531673
	-0.506869
	-0.478844
	-0.461771
	-0.455007
	-0.435357
	-0.396379
	-0.326800
	-0.270750
	-0.233061
	-0.206002
	-0.201170
	-0.195372
	-0.180876
	-0.150274
	-0.126115
	-0.088748
	-0.038174
	0.033338
	0.061363
	0.074571
	0.126433
	0.206965
	0.261083
	0.298450
	0.365130
	0.457259
	0.546811
	0.603827
	0.666965
	0.714640
	0.753295
	0.783897
	0.831250
	0.885690
	0.943673
	1.006811
	1.062217
	1.125033
	1.161111
	1.194935
	1.252596
	1.337316
	1.383381
	1.425902
	1.484852
	1.578270
	1.653005
	1.711632
	1.763818
	1.819224
	1.854015
	1.883973
	1.892993
	1.894281
	1.894603
	1.886872
	1.884617
	1.875597
	1.854337
	1.817614
	1.804728
	1.793776
	1.788300
	1.784112
	1.776381
	1.781213
	1.770905
	1.733215
	1.698425
	1.660091
	1.635287
	1.625301
	1.614027
	1.611772
	1.586646
	1.558942
	1.542836
	1.532205
	1.525118
	1.518676
	1.514166
	1.506757
	1.491617
	1.457471
	1.429124
	1.400132
	1.384025
	1.333773
	1.287064
	1.216517
	1.137273
	1.041923
	0.985550
	0.938519
	0.902763
	0.868939
	0.835438
	0.799037
	0.730424
	0.643127
	0.583533
	0.545844
	0.507833
	0.475942
	0.424402
	0.379304
	0.352245
	0.311335
	0.258506
	0.188926
	0.125789
	0.058464
	0.014655
	-0.024000
	-0.085849
	-0.173468
	-0.246590
	-0.331310
	-0.395413
	-0.466281
	-0.523297
	-0.589333
	-0.642162
	-0.706588
	-0.744921
	-0.771335
	-0.791629
	-0.854766
	-0.910171
	-0.987804
	-1.068980
	-1.158531
	-1.212648
	-1.252269
	-1.317339
	-1.397870
	-1.452632
	-1.488066
	-1.539928
	-1.595333
	-1.652672
	-1.704212
	-1.763483
	-1.817922
	-1.858832
	-1.874294
	-1.890723
	-1.942907
	-1.969321
	-1.992192
	-2.002178
	-1.998312
	-1.998635
	-1.993158
	-1.986716
	-1.980918
	-1.942907
	-1.885246
	-1.857866
	-1.848202
	-1.835961
	-1.830807
	-1.821788
	-1.816956
	-1.792152
	-1.751564
	-1.684240
	-1.654927
	-1.654282
	-1.692615
	-1.701635
	-1.708077
	-1.688750
	-1.658148
	-1.640431
	-1.633344
	-1.626257
	-1.620459
	-1.618849
	-1.613372
	-1.558611
	-1.472926
	-1.418808
	-1.371134
	-1.337955
	-1.281261
	-1.205883
	-1.145324
	-1.089918
	-1.035801
	-1.000689
	-0.961067
	-0.909849
	-0.850578
	-0.806125
	-0.766825
	-0.715285
	-0.658591
	-0.596098
	-0.536505
	-0.487541
	-0.450175
	-0.411519
	-0.382850
	-0.311982
	-0.216310
	-0.121283
	-0.063944
	-0.036885
	-0.039463
	0.005313
	0.067162
	0.126111
	0.189570
	0.232091
	0.270424
	0.300382
	0.334206
	0.374150
	0.432455
	0.467889
	0.508155
	0.537147
	0.574191
	0.600606
	0.644416
	0.724303
	0.796138
	0.827385
	0.829640
	0.846068
	0.867329
	0.895676
	0.919836
	0.968155
	1.023239
	1.064472
	1.092820
	1.124388
	1.149192
	1.177862
	1.206854
	1.251952
	1.306070
	1.341182
	1.386924
	1.424614
	1.447163
	1.435566
	1.406896
	1.388213
	1.383059
	1.388857
	1.413017
	1.420104
	1.418493
	1.418493
	1.411728
	1.409151
	1.398199
	1.434278
	1.479054
	1.500959
	1.504180
	1.507401
	1.513522
	1.540903
	1.552177
	1.555721
	1.550889
	1.543480
	1.538326
	1.532205
	1.530595
	1.521253
	1.521575
	1.530917
	1.554110
	1.572472
	1.600497
	1.639475
	1.693271
	1.713243
	1.719041
	1.736759
	1.768328
	1.822446
	1.860457
	1.881396
	1.878819
	1.877530
	1.869155
	1.902012
	1.943889
	1.980613
	2.006061
	2.034731
	2.057280
	2.066300
	2.061790
	2.076608
	2.098191
	2.137813
	2.189354
	2.224467
	2.265700
	2.295336
	2.312731
	2.298558
	2.273431
	2.237674
	2.201918
	2.146511
	2.083051
	2.036341
	1.992854
	1.976103
	1.958385
	1.933903
	1.896536
	1.866256
	1.829533
	1.779602
	1.718075
	1.688439
	1.685862
	1.685540
	1.670077
	1.623691
	1.567318
	1.515455
	1.478087
	1.456505
	1.447163
	1.405286
	1.353423
	1.308002
	1.265481
	1.231980
	1.191069
	1.158856
	1.122778
	1.076069
	1.013898
	0.972021
	0.945928
	0.905340
	0.836404
	0.771979
	0.702721
	0.651180
	0.616068
	0.574514
	0.543911
	0.474332
	0.389934
	0.333562
	0.292007
	0.254318
	0.217595
	0.173142
	0.112260
	0.056854
	-0.007572
	-0.046549
	-0.073286
	-0.082950
	-0.126759
	-0.175400
	-0.244336
	-0.321646
	-0.412808
	-0.491729
	-0.569039
	-0.621224
	-0.657302
	-0.691770
	-0.721727
	-0.773268
	-0.825452
	-0.868939
	-0.896642
	-0.929177
	-0.953981
	-0.984260
	-0.994891
	-1.002944
	-1.035479
	-1.034512
	-1.026781
	-1.020016
	-1.017439
	-1.014862
	-1.014218
	-1.006487
	-1.006809
	-0.983294
	-0.957524
	-0.942384
	-0.938841
	-0.933687
	-0.928855
	-0.926922
	-0.920479
	-0.919513
	-0.896642
	-0.875060
	-0.876670
	-0.901796
	-0.935297
	-0.988770
	-1.042565
	-1.065114
	-1.072201
	-1.090884
	-1.114077
	-1.119876
	-1.125996
	-1.141136
	-1.168839
	-1.158209
	-1.135660
	-1.118265
	-1.113433
	-1.104414
	-1.084442
	-1.039666
	-1.016473
	-1.010997
	-1.018084
	-1.022593
	-1.018406
	-1.021305
	-1.014218
	-1.013252
	-1.007776
	-0.974275
	-0.914681
	-0.878603
	-0.838015
	-0.806125
	-0.769080
	-0.736867
	-0.699179
	-0.648927
	-0.570972
	-0.489796
	-0.437290
	-0.415707
	-0.416351
	-0.368999
	-0.309083
	-0.243691
	-0.183776
	-0.138356
	-0.103244
	-0.064911
	-0.039785
	-0.024967
	-0.023356
	0.016588
	0.068772
	0.112904
	0.144150
	0.180229
	0.226615
	0.274290
	0.295873
	0.302959
	0.298772
	0.328407
	0.380270
	0.413127
	0.449850
	0.459514
	0.467889
	0.482063
	0.512021
	0.531993
	0.563239
	0.607693
	0.668575
	0.688547
	0.701432
	0.718827
	0.764247
	0.801937
	0.821909
	0.806769
	0.780998
	0.761993
	0.758449
	0.769724
	0.794205
	0.799682
	0.802581
	0.800970
	0.798071
	0.795816
	0.790984
	0.809023
	0.831572
	0.842847
	0.842203
	0.844780
	0.855088
	0.888267
	0.896320
	0.921769
	0.938519
	0.948183
	0.945284
	0.947539
	0.942707
	0.942707
	0.940130
	0.902119
	0.845102
	0.801614
	0.763603
	0.726881
	0.698533
	0.664388
	0.634430
	0.579023
	0.540046
	0.523295
	0.505578
	0.455970
	0.395732
	0.348379
	0.314234
	0.257861
	0.205355
	0.159935
	0.126433
	0.090999
	0.059431
	0.023674
	-0.007250
	-0.057502
	-0.112263
	-0.152851
	-0.185708
	-0.217921
	-0.229840
	-0.240470
	-0.283635
	-0.361912
	-0.468214
	-0.529096
	-0.572583
	-0.604796
	-0.639263
	-0.683394
	-0.741055
	-0.781321
	-0.817399
	-0.848001
	-0.879892
	-0.904695
	-0.937552
	-0.979106
	-1.035801
	-1.054162
	-1.041921
	-1.001333
	-0.986193
	-0.995535
	-1.031935
	-1.059316
	-1.088629
	-1.096683
	-1.102803
	-1.098615
	-1.098615
	-1.092817
	-1.093461
	-1.107957
	-1.136304
	-1.139525
	-1.141136
	-1.155632
	-1.178825
	-1.220057
	-1.250659
	-1.246149
	-1.262577
	-1.289958
	-1.327969
	-1.360504
	-1.393683
	-1.440069
	-1.491609
	-1.529942
	-1.558933
	-1.552813
	-1.530586
	-1.483556
	-1.425251
	-1.380798
	-1.333445
	-1.317017
	-1.305098
	-1.280616
	-1.225855
	-1.135660
	-1.058994
	-1.033868
	-1.028714
	-1.027748
	-1.025171
	-0.985227
	-0.930465
	-0.870550
	-0.806447
	-0.760383
	-0.723660
	-0.691770
	-0.656980
	-0.590300
	-0.502681
	-0.447920
	-0.405399
	-0.371254
	-0.313271
	-0.219854
	-0.133524
	-0.087460
	-0.053636
	-0.024645
	0.010467
	0.037204
	0.071027
	0.080047
	0.088422
	0.122246
	0.176363
	0.209542
	0.244976
	0.275578
	0.309402
	0.320032
	0.330340
	0.347735
	0.394766
	0.436965
	0.453071
	0.477231
	0.498491
	0.505256
	0.504934
	0.527161
	0.544556
	0.558729
	0.558729
	0.579668
	0.599317
	0.611881
	0.607371
	0.611558
	0.609626
	0.591909
	0.564850
	0.554864
	0.567749
	0.579668
	0.565172
	0.536825
	0.502357
	0.450816
	0.392189
	0.367063
	0.358688
	0.331629
	0.306825
	0.290396
	0.286209
	0.259472
	0.236279
	0.200201
	0.174752
	0.121923
	0.070061
	0.044291
	0.062008
	0.067484
	0.059109
	0.009501
	-0.048482
	-0.111297
	-0.169280
	-0.198271
	-0.206324
	-0.256254
	-0.320358
	-0.362234
	-0.403144
	-0.435035
	-0.469180
	-0.475623
	-0.484642
	-0.517821
	-0.569362
	-0.605762
	-0.615426
	-0.608983
	-0.624767
	-0.652148
	-0.687904
	-0.723016
	-0.750397
	-0.800648
	-0.856698
	-0.895676
	-0.925633
	-0.939485
	-0.943028
	-0.963322
	-0.987804
	-1.016795
	-1.039344
	-1.088951
	-1.136304
	-1.122453
	-1.049974
	-0.975563
	-0.922090
	-0.912426
	-0.908239
	-0.908883
	-0.905017
	-0.886012
	-0.855732
	-0.806125
	-0.749108
	-0.701756
	-0.669543
	-0.653759
	-0.647638
	-0.623479
	-0.595776
	-0.560342
	-0.531673
	-0.476911
	-0.397346
	-0.336142
	-0.313593
	-0.305862
	-0.312949
	-0.291044
	-0.268495
	-0.208902
	-0.141577
	-0.112585
	-0.102277
	-0.058790
	-0.007894
	0.028184
	0.063296
	0.094543
	0.127400
	0.176685
	0.234668
	0.272357
	0.334528
	0.393800
	0.441475
	0.452427
	0.455004
	0.491727
	0.541656
	0.577413
	0.607049
	0.641838
	0.667931
	0.699500
	0.723015
	0.772945
	0.822875
	0.868295
	0.898898
	0.932721
	0.963646
	0.990060
	1.040957
	1.116335
	1.179795
	1.179795
	1.164654
	1.150481
	1.148548
	1.140817
	1.141461
	1.096041
	1.047721
	1.019374
	1.004878
	0.999724
	0.991027
	0.989094
	0.984584
	0.966867
	0.936587
	0.926923
	0.938519
	0.964934
	0.972987
	0.953015
	0.924668
	0.891166
	0.858631
	0.844780
	0.839304
	0.829640
	0.831572
	0.825774
	0.823197
	0.798071
	0.773267
	0.773267
	0.797427
	0.803869
	0.807091
	0.824486
	0.870872
	0.905340
	0.917581
	0.923057
	0.916292
	0.916292
	0.909850
	0.948505
	0.992315
	1.016797
	1.017119
	1.037413
	1.058030
	1.063828
	1.064150
	1.081545
	1.107637
	1.112792
	1.118590
	1.152414
	1.224571
	1.265803
	1.285453
	1.283198
	1.286742
	1.282232
	1.277722
	1.271602
	1.271924
	1.266448
	1.263548
	1.260649
	1.252596
	1.228436
	1.197834
	1.186881
	1.176895
	1.175607
	1.170453
	1.170131
	1.187848
	1.174318
	1.127932
	1.088310
	1.053198
	1.033870
	1.026139
	1.018730
	1.017763
	0.991027
	0.968477
	0.949794
	0.943996
	0.937231
	0.930788
	0.929500
	0.928211
	0.909850
	0.881503
	0.832861
	0.795494
	0.780676
	0.755550
	0.703365
	0.642805
	0.602539
	0.562595
	0.507189
	0.448239
	0.404430
	0.368674
	0.334528
	0.301671
	0.263338
	0.235957
	0.179906
	0.129010
	0.086489
	0.054921
	0.016910
	0.015621
	0.011112
	-0.005961
	-0.076829
	-0.157683
	-0.213411
	-0.249812
	-0.285246
	-0.316814
	-0.364811
	-0.421505
	-0.441477
	-0.453718
	-0.503648
	-0.570972
	-0.610916
	-0.646672
	-0.676308
	-0.705943
	-0.712708
	-0.691125
	-0.694025
	-0.730747
	-0.789696
	-0.853477
	-0.894709
	-0.929177
	-0.941096
	-0.942706
	-0.964933
	-0.985227
	-1.035801
	-1.087341
	-1.132116
	-1.158531
	-1.173993
	-1.171738
	-1.191710
	-1.209749
	-1.238418
	-1.231331
	-1.246149
	-1.279328
	-1.324748
	-1.359859
	-1.373711
	-1.380153
	-1.376288
	-1.377254
	-1.389173
	-1.412688
	-1.417520
	-1.423318
	-1.415587
	-1.417842
	-1.412366
	-1.406246
	-1.422996
	-1.443290
	-1.452632
	-1.419131
	-1.382730
	-1.361792
	-1.389495
	-1.414943
	-1.466805
	-1.513513
	-1.536062
	-1.536707
	-1.536384
	-1.531875
	-1.530908
	-1.526721
	-1.544438
	-1.566986
	-1.550236
	-1.528009
	-1.470349
	-1.415265
	-1.364691
	-1.295756
	-1.216836
	-1.173671
	-1.141780
	-1.117299
	-1.080254
	-1.053518
	-1.016151
	-0.983616
	-0.947216
	-0.915970
	-0.861208
	-0.805802
	-0.762638
	-0.725593
	-0.690803
	-0.656336
	-0.622512
	-0.587079
	-0.536505
	-0.445343
	-0.373508
	-0.323901
	-0.315848
	-0.309727
	-0.259153
	-0.197949
	-0.112908
	-0.029477
	0.028184
	0.063618
	0.141895
	0.216951
	0.271713
	0.303604
	0.383491
	0.458547
	0.516530
	0.550998
	0.608015
	0.683393
	0.776488
	0.842525
	0.885046
	0.917903
	0.950760
	0.976209
	1.047077
	1.121489
	1.169809
	1.208786
	1.275467
	1.352779
	1.397233
	1.435244
	1.501925
	1.583102
	1.629167
	1.664279
	1.674587
	1.701646
	1.721619
	1.727417
	1.706156
	1.678131
	1.645918
	1.610805
	1.595343
	1.583746
	1.582458
	1.571827
	1.567962
	1.559264
	1.516421
	1.457793
	1.438143
	1.423003
	1.418815
	1.413017
	1.410762
	1.426869
	1.430412
	1.410440
	1.377905
	1.347302
	1.333773
	1.324753
	1.317666
	1.314767
	1.286420
	1.262582
	1.224249
	1.194290
	1.132441
	1.077035
	1.026783
	0.996825
	0.916937
	0.839948
	0.781320
	0.771656
	0.757161
	0.737189
	0.678883
	0.624121
	0.538113
	0.454360
	0.395410
	0.356111
	0.321643
	0.285242
	0.233380
	0.176363
	0.113226
	0.049767
	0.010145
	-0.027222
	-0.077151
	-0.133202
	-0.173790
	-0.180554
	-0.220176
	-0.287823
	-0.395413
	-0.494306
	-0.556477
	-0.596742
	-0.635075
	-0.659879
	-0.715929
	-0.764570
	-0.808380
	-0.837371
	-0.873771
	-0.898897
	-0.931110
	-0.955269
	-1.006487
	-1.056095
	-1.097971
	-1.092173
	-1.091206
	-1.107313
	-1.163363
	-1.218768
	-1.279006
	-1.336344
	-1.374355
	-1.406890
	-1.436525
	-1.467127
	-1.514802
	-1.570530
	-1.606608
	-1.639787
	-1.624969
	-1.604353
	-1.586958
	-1.582448
	-1.574073
	-1.534452
	-1.492575
	-1.478724
	-1.461329
	-1.438780
	-1.426862
	-1.421385
	-1.415265
	-1.409789
	-1.406890
	-1.399803
	-1.376610
	-1.346008
	-1.335056
	-1.324426
	-1.321849
	-1.311863
	-1.311541
	-1.302199
	-1.280616
	-1.213614
	-1.169483
	-1.146612
	-1.173671
	-1.197508
	-1.207172
	-1.206205
	-1.207172
	-1.203950
	-1.219735
	-1.242283
	-1.248404
	-1.252914
	-1.271275
	-1.301233
	-1.302521
	-1.303487
	-1.338277
	-1.386918
	-1.400125
	-1.372422
	-1.353739
	-1.364691
	-1.403346
	-1.433626
	-1.464228
	-1.488066
	-1.500306
	-1.497729
	-1.517379
	-1.537029
	-1.546370
	-1.542183
	-1.588247
	-1.627546
	-1.645585
	-1.645263
	-1.668134
	-1.685851
	-1.671999
	-1.609185
	-1.560222
	-1.540250
	-1.566020
	-1.595333
	-1.598877
	-1.603064
	-1.555390
	-1.507071
	-1.479046
	-1.469060
	-1.460363
	-1.457141
	-1.452954
	-1.451021
	-1.424607
	-1.394005
	-1.381120
	-1.367268
	-1.366302
	-1.321204
	-1.283516
	-1.265477
	-1.276751
	-1.276107
	-1.275140
	-1.273530
	-1.270631
	-1.266121
	-1.261611
	-1.260645
	-1.232298
	-1.209427
	-1.154021
	-1.099904
	-1.050618
	-1.014862
	-0.971375
	-0.940129
	-0.880214
	-0.790018
	-0.712708
	-0.666322
	-0.661168
	-0.655369
	-0.633465
	-0.604473
	-0.555832
	-0.496883
	-0.455973
	-0.417640
	-0.386716
	-0.352570
	-0.323257
	-0.293299
	-0.235316
	-0.182487
	-0.137389
	-0.104532
	-0.067810
	-0.009183
	0.089711
	0.159612
	0.202778
	0.232735
	0.269458
	0.297161
	0.330662
	0.358688
	0.367385
	0.375760
	0.413127
	0.463379
	0.498491
	0.531670
	0.561306
	0.594486
	0.601250
	0.609948
	0.629920
	0.682427
	0.757161
	0.819009
	0.830928
	0.838981
	0.842203
	0.838337
	0.861208
	0.878603
	0.910172
	0.932077
	0.987161
	1.032259
	1.055130
	1.058030
	1.082511
	1.105060
	1.116013
	1.114724
	1.115691
	1.140495
	1.163366
	1.169164
	1.159823
	1.159823
	1.154668
	1.154668
	1.147259
	1.146937
	1.140495
	1.142105
	1.154024
	1.177862
	1.178828
	1.180761
	1.176573
	1.179472
	1.173030
	1.176573
	1.212652
	1.283198
	1.323465
	1.336028
	1.311868
	1.287064
	1.277400
	1.265481
	1.222960
	1.167876
	1.125999
	1.087021
	1.053520
	1.017119
	0.980718
	0.949150
	0.889234
	0.835116
	0.789696
	0.756194
	0.716250
	0.715928
	0.704331
	0.685004
	0.600284
	0.528127
	0.471110
	0.435032
	0.392833
	0.365130
	0.327119
	0.299094
	0.242721
	0.190859
	0.144795
	0.112260
	0.078758
	0.047834
	-0.001451
	-0.056857
	-0.131591
	-0.167669
	-0.205036
	-0.258509
	-0.350315
	-0.435357
	-0.506869
	-0.570006
	-0.614137
	-0.648283
	-0.723338
	-0.800004
	-0.852511
	-0.888267
	-0.968798
	-1.040955
	-1.094428
	-1.124707
	-1.203628
	-1.274496
	-1.331190
	-1.323137
	-1.346330
	-1.383375
	-1.479690
	-1.558289
	-1.634311
	-1.690360
	-1.734492
	-1.763805
	-1.834995
	-1.907151
	-1.914238
	-1.900386
	-1.890723
	-1.887179
	-1.876871
	-1.874294
	-1.863664
	-1.860121
	-1.808903
	-1.719674
	-1.655571
	-1.636243
	-1.662336
	-1.685206
	-1.689072
	-1.692615
	-1.665235
	-1.639787
	-1.624969
	-1.614983
	-1.609185
	-1.605641
	-1.600810
	-1.597266
	-1.569563
	-1.539284
	-1.526398
	-1.512547
	-1.510292
	-1.464228
	-1.426862
	-1.409145
	-1.380153
	-1.330224
	-1.286737
	-1.252914
	-1.213614
	-1.182690
	-1.143391
	-1.112789
	-1.028070
	-0.953336
	-0.895998
	-0.858631
	-0.794528
	-0.739767
	-0.690159
	-0.656014
	-0.595776
	-0.506869
	-0.409265
	-0.341296
	-0.326800
	-0.316814
	-0.291044
	-0.265274
	-0.191829
	-0.112908
	-0.063944
	-0.024645
	0.009823
	0.042680
	0.102918
	0.169598
	0.257539
	0.339360
	0.395088
	0.433421
	0.511054
	0.619612
	0.698533
	0.739766
	0.790984
	0.842203
	0.885690
	0.914038
	0.968800
	1.014864
	1.083478
	1.133408
	1.199445
	1.248408
	1.291896
	1.317666
	1.397233
	1.467135
	1.518676
	1.550245
	1.628200
	1.724518
	1.795709
	1.837264
	1.883973
	1.939380
	1.976747
	2.007350
	2.010571
	2.016369
	2.008960
	2.007027
	2.000263
	1.996075
	1.963862
	1.937447
	1.918441
	1.911998
	1.904267
	1.898147
	1.891704
	1.914575
	1.888161
	1.840163
	1.794098
	1.758342
	1.746745
	1.735148
	1.729994
	1.720974
	1.699391
	1.665890
	1.653327
	1.640441
	1.633677
	1.625946
	1.625623
	1.618536
	1.594699
	1.565707
	1.530595
	1.524796
	1.490650
	1.442009
	1.368563
	1.312512
	1.219739
	1.139850
	1.080256
	1.042245
	0.998436
	0.971377
	0.928533
	0.899220
	0.815144
	0.736544
	0.678883
	0.643127
	0.604794
	0.575158
	0.518463
	0.495270
	0.456292
	0.406363
	0.331307
	0.273324
	0.210509
	0.147049
	0.106783
	0.070061
	-0.003706
	-0.083272
	-0.112263
	-0.130302
	-0.186997
	-0.249490
	-0.294587
	-0.327444
	-0.361590
	-0.388648
	-0.401856
	-0.365777
	-0.386071
	-0.420539
	-0.496883
	-0.547779
	-0.593521
	-0.620258
	-0.637652
	-0.637975
	-0.660523
	-0.681462
	-0.738156
	-0.788086
	-0.829640
	-0.860886
	-0.868295
	-0.873127
	-0.892777
	-0.915648
	-0.943673
	-0.931110
	-0.947860
	-0.993924
	-1.001655
	-0.987160
	-0.951726
	-0.927244
	-0.888911
	-0.860242
	-0.845746
	-0.837049
	-0.812245
	-0.789052
	-0.734290
	-0.678885
	-0.636042
	-0.596420
	-0.584179
	-0.573227
	-0.549712
	-0.484964
	-0.423116
	-0.383172
	-0.364167
	-0.332598
	-0.318747
	-0.315203
	-0.290078
	-0.265274
	-0.230806
	-0.205036
	-0.134490
	-0.076829
	-0.047516
	-0.040107
	0.009823
	0.055887
	0.102918
	0.130299
	0.168954
	0.228548
	0.269458
	0.277511
	0.293296
	0.317455
	0.351601
	0.377049
	0.409584
	0.438253
	0.447595
	0.452427
	0.473365
	0.497525
	0.502035
	0.506544
	0.548743
	0.595774
	0.611558
	0.622833
	0.642161
	0.701432
	0.731390
	0.742021
	0.731068
	0.738155
	0.735900
	0.734289
	0.733967
	0.731390
	0.708197
	0.680816
	0.669542
	0.659233
	0.635074
	0.604472
	0.597385
	0.590942
	0.546166
	0.495270
	0.479164
	0.499780
	0.501390
	0.481741
	0.436643
	0.412805
	0.378015
	0.350312
	0.312945
	0.286531
	0.225326
	0.178618
	0.152203
	0.144795
	0.114837
	0.092288
	0.056854
	0.032372
	-0.023034
	-0.072642
	-0.146087
	-0.177655
	-0.199560
	-0.227907
	-0.297164
	-0.347738
	-0.408620
	-0.467570
	-0.507191
	-0.543269
	-0.572583
	-0.601252
	-0.631532
	-0.663423
	-0.717218
	-0.768436
	-0.810312
	-0.837371
	-0.872161
	-0.895998
	-0.926600
	-0.912104
	-0.937874
	-0.976529
	-1.057383
	-1.106346
	-1.152732
	-1.181724
	-1.240995
	-1.283516
	-1.327003
	-1.354061
	-1.363403
	-1.368879
	-1.367913
	-1.366946
	-1.362759
	-1.360826
	-1.374033
	-1.395293
	-1.394649
	-1.358249
	-1.320882
	-1.313795
	-1.347297
	-1.368557
	-1.396904
	-1.420097
	-1.428150
	-1.427184
	-1.424929
	-1.420097
	-1.420741
	-1.413332
	-1.459396
	-1.497085
	-1.514802
	-1.515446
	-1.516735
	-1.509326
	-1.507071
	-1.456497
	-1.445545
	-1.458752
	-1.506105
	-1.523821
	-1.557000
	-1.580193
	-1.608541
	-1.633022
	-1.683274
	-1.729660
	-1.745122
	-1.754463
	-1.774113
	-1.796662
	-1.821143
	-1.843370
	-1.868496
	-1.893622
	-1.894266
	-1.850135
	-1.858510
	-1.896521
	-1.974153
	-2.024083
	-2.065959
	-2.091407
	-2.104614
	-2.099460
	-2.121687
	-2.134894
	-2.187400
	-2.228632
	-2.268254
	-2.292735
	-2.275340
	-2.249892
	-2.190299
	-2.135860
	-2.083676
	-2.002822
	-1.947417
	-1.934532
	-1.943551
	-1.942585
	-1.911983
	-1.887823
	-1.822110
	-1.769603
	-1.738679
	-1.727727
	-1.695192
	-1.666845
	-1.630123
	-1.598877
	-1.559577
	-1.526076
	-1.511903
	-1.498374
	-1.448122
	-1.348585
	-1.274174
	-1.235841
	-1.239062
	-1.227144
	-1.224567
	-1.218124
	-1.145001
	-1.073812
	-1.018084
	-0.981361
	-0.940129
	-0.913393
	-0.873449
	-0.848645
	-0.760705
	-0.684039
	-0.623479
	-0.585790
	-0.520076
	-0.426659
	-0.352892
	-0.317136
	-0.297164
	-0.262697
	-0.208257
	-0.152529
	-0.109686
	-0.074574
	-0.043006
	-0.010793
	0.063618
	0.141573
	0.190215
	0.227259
	0.264304
	0.293940
	0.362553
	0.422147
	0.496558
	0.583533
	0.655690
	0.686614
	0.689836
	0.694990
	0.745242
	0.785186
	0.830284
	0.853799
	0.891811
	0.913715
	0.948828
	0.967833
	1.025817
	1.066405
	1.110215
	1.136951
	1.172386
	1.196223
	1.233268
	1.287386
	1.366630
	1.415594
	1.427513
	1.436855
	1.461981
	1.480664
	1.512555
	1.536393
	1.586323
	1.631744
	1.647850
	1.649461
	1.645273
	1.645918
	1.638186
	1.637542
	1.585679
	1.538648
	1.515132
	1.539614
	1.548634
	1.547990
	1.511267
	1.490650
	1.453928
	1.426546
	1.405930
	1.403353
	1.394978
	1.393367
	1.384347
	1.381770
	1.349879
	1.327330
	1.313157
	1.307680
	1.302526
	1.300593
	1.298983
	1.327330
	1.323787
	1.295439
	1.277400
	1.274179
	1.269669
	1.265803
	1.287708
	1.303170
	1.312190
	1.308002
	1.332162
	1.347947
	1.355356
	1.353101
	1.400132
	1.441042
	1.456827
	1.460692
	1.483886
	1.534782
	1.560875
	1.564096
	1.553788
	1.559264
	1.554755
	1.553144
	1.593732
	1.638186
	1.649783
	1.659125
	1.672010
	1.692305
	1.692305
	1.693593
	1.687795
	1.688761
	1.683285
	1.679419
	1.679419
	1.704868
	1.696492
	1.671366
	1.629489
	1.603718
	1.594699
	1.581814
	1.578592
	1.571183
	1.521253
	1.467135
	1.448451
	1.430090
	1.423647
	1.416883
	1.414950
	1.410118
	1.384669
	1.357611
	1.346014
	1.373073
	1.386602
	1.382737
	1.347624
	1.331518
	1.292218
	1.269347
	1.203632
	1.153702
	1.105060
	1.073170
	1.031293
	1.001657
	0.961068
	0.930144
	0.869262
	0.815144
	0.771656
	0.737189
	0.705942
	0.705942
	0.694345
	0.662133
	0.574514
	0.503645
	0.452749
	0.412805
	0.378015
	0.345802
	0.311979
	0.280733
	0.226293
	0.172175
	0.126755
	0.094543
	0.056532
	0.031728
	-0.024645
	-0.074574
	-0.149308
	-0.172179
	-0.200848
	-0.230484
	-0.304895
	-0.348060
	-0.416029
	-0.465315
	-0.512345
	-0.539726
	-0.578059
	-0.600930
	-0.636364
	-0.660846
	-0.724627
	-0.767469
	-0.787763
	-0.792595
	-0.796139
	-0.793240
	-0.788730
	-0.739767
	-0.737512
	-0.757806
	-0.804514
	-0.821909
	-0.835116
	-0.831250
	-0.833183
	-0.829640
	-0.852189
	-0.872483
	-0.880214
	-0.883435
	-0.905340
	-0.929177
	-0.978140
	-1.026459
	-1.064148
	-1.093139
	-1.093783
	-1.056095
	-1.049974
	-1.077355
	-1.167872
	-1.237452
	-1.281261
	-1.316695
	-1.300588
	-1.282549
	-1.222956
	-1.173349
	-1.123097
	-1.090884
	-1.072523
	-1.063826
	-1.035479
	-1.005843
	-0.947538
	-0.894387
	-0.844136
	-0.766503
	-0.727848
	-0.717218
	-0.709165
	-0.678240
	-0.619613
	-0.566462
	-0.523620
	-0.486575
	-0.450819
	-0.418928
	-0.336786
	-0.265274
	-0.214700
	-0.177977
	-0.139322
	-0.110008
	-0.033986
	0.023352
	0.104206
	0.194080
	0.264626
	0.291363
	0.298127
	0.303281
	0.310368
	0.306825
	0.355788
	0.398309
	0.441797
	0.466923
	0.504612
	0.528127
	0.537147
	0.540690
	0.567105
	0.588043
	0.645704
	0.691768
	0.739121
	0.805158
	0.833505
	0.835438
	0.827707
	0.832539
	0.853477
	0.876671
	0.927889
	0.979752
	0.994892
	1.004878
	1.000046
	1.001979
	0.944318
	0.896965
	0.852833
	0.823841
	0.784219
	0.755550
	0.749107
	0.776166
	0.770690
	0.740732
	0.653435
	0.584500
	0.534248
	0.493337
	0.483351
	0.472077
	0.447273
	0.419570
	0.388968
	0.354822
	0.298772
	0.246265
	0.229836
	0.217273
	0.193436
	0.166055
	0.141573
	0.151881
	0.116447
	0.063296
	-0.048160
	-0.130302
	-0.188285
	-0.224041
	-0.264630
	-0.290078
	-0.349993
	-0.396057
	-0.444699
	-0.472401
	-0.511701
	-0.536183
	-0.571939
	-0.592877
	-0.653759
	-0.696602
	-0.662456
	-0.579670
	-0.540692
	-0.534572
	-0.567751
	-0.583535
	-0.589656
	-0.592233
	-0.565818
	-0.542947
	-0.529418
	-0.527485
	-0.521687
	-0.525552
	-0.521365
	-0.521687
	-0.516855
	-0.518143
	-0.535860
	-0.558731
	-0.556154
	-0.520398
	-0.541337
	-0.591910
	-0.644417
	-0.669543
	-0.702078
	-0.727848
	-0.737190
	-0.736223
	-0.763282
	-0.781643
	-0.767147
	-0.745243
	-0.740411
	-0.729136
	-0.730103
	-0.724627
	-0.721727
	-0.718828
	-0.685971
	-0.618647
	-0.583213
	-0.584824
	-0.615426
	-0.635075
	-0.638941
	-0.642806
	-0.589978
	-0.545202
	-0.497527
	-0.468214
	-0.429559
	-0.407010
	-0.367066
	-0.340329
	-0.278803
	-0.226619
	-0.182165
	-0.150919
	-0.107109
	-0.040429
	0.052344
	0.111293
	0.169276
	0.231125
	0.276545
	0.308758
	0.390578
	0.465312
	0.516208
	0.550354
	0.635074
	0.702399
	0.753939
	0.783897
	0.846390
	0.891489
	0.965256
	1.012287
	1.089598
	1.170131
	1.236167
	1.256462
	1.311868
	1.360832
	1.406252
	1.433311
	1.513522
	1.582780
	1.630777
	1.662024
	1.738691
	1.807306
	1.849505
	1.882684
	1.890093
	1.894603
	1.889449
	1.889771
	1.888805
	1.914575
	1.901690
	1.870765
	1.829533
	1.806983
	1.795709
	1.783468
	1.780569
	1.772837
	1.721619
	1.669111
	1.649461
	1.630455
	1.627556
	1.617248
	1.614349
	1.607262
	1.581814
	1.556043
	1.548312
	1.572472
	1.581169
	1.574405
	1.539292
	1.524152
	1.484852
	1.458760
	1.417849
	1.391112
	1.327008
	1.277078
	1.223282
	1.191391
	1.099584
	1.026783
	0.967511
	0.934654
	0.893099
	0.863141
	0.833827
	0.835760
	0.769402
	0.690480
	0.605116
	0.549065
	0.509766
	0.471755
	0.413127
	0.361265
	0.293618
	0.237245
	0.192792
	0.156069
	0.093898
	0.044935
	0.000159
	-0.027866
	-0.112908
	-0.182165
	-0.205036
	-0.174756
	-0.220176
	-0.278481
	-0.363845
	-0.408298
	-0.455651
	-0.480777
	-0.494950
	-0.496883
	-0.548101
	-0.588045
	-0.633465
	-0.661490
	-0.697890
	-0.723016
	-0.730747
	-0.729459
	-0.753296
	-0.776489
	-0.820298
	-0.829962
	-0.846068
	-0.880214
	-0.924345
	-0.949149
	-0.976207
	-1.003266
	-1.032579
	-1.057383
	-1.110856
	-1.157886
	-1.123419
	-1.087985
	-1.071879
	-1.061249
	-1.057383
	-1.051263
	-1.048041
	-1.043532
	-1.032257
	-0.983294
	-0.959779
	-0.960423
	-0.998756
	-1.011319
	-1.020339
	-1.016473
	-0.992314
	-0.965577
	-0.953658
	-0.945283
	-0.944639
	-0.943028
	-0.939807
	-0.940451
	-0.934009
	-0.931110
	-0.926600
	-0.924667
	-0.909527
	-0.868295
	-0.838659
	-0.846390
	-0.853477
	-0.850578
	-0.817077
	-0.798071
	-0.782287
	-0.778100
	-0.722372
	-0.675986
	-0.630244
	-0.600608
	-0.587079
	-0.579992
	-0.553577
	-0.526197
	-0.515889
	-0.508158
	-0.473368
	-0.404755
	-0.328411
	-0.280414
	-0.300064
	-0.306184
	-0.285890
	-0.262375
	-0.232095
	-0.202459
	-0.191829
	-0.187641
	-0.123216
	-0.071031
	-0.046549
	-0.038818
	0.014333
	0.059431
	0.105495
	0.133198
	0.181517
	0.243044
	0.275578
	0.270424
	0.290074
	0.313912
	0.353533
	0.376405
	0.414738
	0.438253
	0.450816
	0.448561
	0.477553
	0.494304
	0.503001
	0.503001
	0.555830
	0.595452
	0.617357
	0.619934
	0.657301
	0.712063
	0.740088
	0.733967
	0.730746
	0.734612
	0.736222
	0.735256
	0.733645
	0.731068
	0.704009
	0.681782
	0.666965
	0.660522
	0.629920
	0.606404
	0.592875
	0.594486
	0.538435
	0.495592
	0.485284
	0.514598
	0.500102
	0.474009
	0.425046
	0.409262
	0.370284
	0.346769
	0.307469
	0.284920
	0.221139
	0.175075
	0.152848
	0.143184
	0.111293
	0.089711
	0.056209
	0.030761
	-0.025611
	-0.076829
	-0.144476
	-0.170890
	-0.221142
	-0.284924
	-0.387682
	-0.459194
	-0.531351
	-0.588689
	-0.634109
	-0.664067
	-0.747820
	-0.818043
	-0.870228
	-0.903407
	-0.992636
	-1.057383
	-1.112467
	-1.139203
	-1.228432
	-1.293502
	-1.335378
	-1.317983
	-1.358571
	-1.409789
	-1.516413
	-1.578261
	-1.657182
	-1.706789
	-1.749309
	-1.774435
	-1.859154
	-1.921325
	-1.922935
	-1.910050
	-1.900708
	-1.897487
	-1.886857
	-1.881703
	-1.873328
	-1.871717
	-1.796984
	-1.705822
	-1.656215
	-1.656215
	-1.686173
	-1.700991
	-1.699702
	-1.698736
	-1.670067
	-1.644619
	-1.631734
	-1.623358
	-1.620137
	-1.613372
	-1.613695
	-1.606286
	-1.577294
	-1.547337
	-1.535740
	-1.522855
	-1.506105
	-1.451987
	-1.427184
	-1.428794
	-1.394649
	-1.339243
	-1.293179
	-1.258068
	-1.220379
	-1.185267
	-1.149511
	-1.116654
	-1.029036
	-0.953981
	-0.900508
	-0.860242
	-0.795172
	-0.740089
	-0.694669
	-0.660523
	-0.585146
	-0.490441
	-0.401211
	-0.353214
	-0.345161
	-0.326800
	-0.297809
	-0.271716
	-0.188930
	-0.114196
	-0.062978
	-0.028510
	0.007568
	0.036560
	0.106139
	0.167021
	0.239500
	0.292329
	0.340326
	0.369640
	0.420536
	0.480130
	0.510088
	0.501390
	0.523617
	0.546488
	0.586432
	0.607049
	0.646348
	0.666320
	0.679205
	0.678239
	0.704009
	0.721082
	0.780354
	0.822231
	0.866362
	0.893421
	0.902119
	0.906951
	0.942385
	0.999402
	1.042245
	1.059318
	1.084122
	1.121167
	1.128254
	1.132764
	1.155635
	1.178506
	1.182372
	1.184627
	1.181727
	1.175929
	1.171741
	1.168520
	1.192036
	1.207820
	1.216517
	1.213940
	1.226503
	1.251952
	1.269669
	1.252918
	1.249697
	1.252596
	1.253240
	1.250019
	1.248408
	1.244221
	1.240999
	1.238100
	1.281266
	1.322176
	1.332484
	1.336994
	1.334095
	1.336350
	1.329263
	1.328619
	1.282554
	1.271280
	1.237134
	1.201377
	1.128254
	1.088954
	1.042889
	1.010999
	0.943996
	0.892455
	0.846390
	0.809668
	0.772623
	0.737833
	0.700788
	0.672119
	0.611558
	0.560662
	0.519752
	0.484962
	0.461124
	0.467889
	0.448239
	0.411194
	0.316811
	0.256251
	0.202778
	0.173142
	0.129655
	0.105817
	0.041714
	-0.003384
	-0.090359
	-0.148664
	-0.230162
	-0.277192
	-0.350637
	-0.398634
	-0.470147
	-0.518466
	-0.551000
	-0.539082
	-0.606084
	-0.689193
	-0.773912
	-0.823842
	-0.916614
	-0.989414
	-1.037733
	-1.073489
	-1.159497
	-1.229398
	-1.280939
	-1.315728
	-1.373711
	-1.421063
	-1.485489
	-1.530264
	-1.597266
	-1.644619
	-1.669744
	-1.649451
	-1.713876
	-1.787965
	-1.829841
	-1.829519
	-1.831451
	-1.825331
	-1.823720
	-1.815667
	-1.808903
	-1.805359
	-1.747699
	-1.703568
	-1.680052
	-1.670711
	-1.659114
	-1.656859
	-1.646551
	-1.643330
	-1.591468
	-1.521889
	-1.484844
	-1.493864
	-1.527687
	-1.538639
	-1.543793
	-1.540250
	-1.513836
	-1.483878
	-1.475825
	-1.462940
	-1.462295
	-1.455853
	-1.455209
	-1.447478
	-1.366624
	-1.296079
	-1.238418
	-1.204273
	-1.140170
	-1.069946
	-1.007454
	-0.997146
	-0.935297
	-0.884079
	-0.831895
	-0.800648
	-0.732358
	-0.684039
	-0.634753
	-0.604151
	-0.541659
	-0.490763
	-0.420861
	-0.366100
	-0.321968
	-0.286212
	-0.250134
	-0.219532
	-0.114518
	-0.007572
	0.065551
	0.084557
	0.088744
	0.099374
	0.171531
	0.221139
	0.299416
	0.346125
	0.394766
	0.421825
	0.460480
	0.480452
	0.489150
	0.493981
	0.545200
	0.589976
	0.629598
	0.659233
	0.708519
	0.770368
	0.789696
	0.782931
	0.778421
	0.786474
	0.836404
	0.879892
	0.918225
	0.945928
	0.955592
	0.954626
	0.983618
	0.998113
	1.029360
	1.046111
	1.113114
	1.154024
	1.174318
	1.179795
	1.195579
	1.224249
	1.235201
	1.222960
	1.187848
	1.174641
	1.162077
	1.159500
	1.152091
	1.152736
	1.145649
	1.146937
	1.138240
	1.135663
	1.075747
	1.028716
	1.008099
	0.999402
	0.994892
	0.989094
	1.002945
	1.029682
	1.043856
	1.028394
	0.998436
	0.977497
	0.973309
	0.965256
	0.963646
	0.958169
	0.934654
	0.906306
	0.898575
	0.889234
	0.857343
	0.832539
	0.823519
	0.816110
	0.788407
	0.767469
	0.717861
	0.706586
	0.699177
	0.678883
	0.612847
	0.580634
	0.530382
	0.506867
	0.491082
	0.488505
	0.455648
	0.435998
	0.420536
	0.415382
	0.362231
	0.319388
	0.274290
	0.248198
	0.236601
	0.228548
	0.220495
	0.229192
	0.187315
	0.124178
	0.076826
	0.051055
	-0.018846
	-0.079406
	-0.122894
	-0.156073
	-0.190540
	-0.218565
	-0.228229
	-0.235316
	-0.288145
	-0.329699
	-0.372864
	-0.399923
	-0.435679
	-0.458872
	-0.452752
	-0.413774
	-0.426337
	-0.461127
	-0.559698
	-0.612527
	-0.667288
	-0.693380
	-0.704977
	-0.706265
	-0.734613
	-0.752330
	-0.787441
	-0.811279
	-0.870550
	-0.913393
	-0.929499
	-0.933365
	-0.931432
	-0.934009
	-0.908883
	-0.868617
	-0.873127
	-0.910494
	-0.950437
	-0.968798
	-0.970409
	-0.974275
	-0.969443
	-0.970409
	-0.991347
	-1.015507
	-1.019694
	-1.022593
	-1.021627
	-1.018406
	-1.014862
	-1.010675
	-1.062537
	-1.096683
	-1.093783
	-1.054162
	-1.038056
	-1.052229
	-1.088629
	-1.098293
	-1.127929
	-1.149833
	-1.128251
	-1.108601
	-1.043210
	-0.998112
	-0.945283
	-0.920802
	-0.875382
	-0.848967
	-0.780677
	-0.732036
	-0.682750
	-0.652148
	-0.590622
	-0.522975
	-0.471757
	-0.458550
	-0.430525
	-0.393802
	-0.356436
	-0.324223
	-0.289755
	-0.261086
	-0.222753
	-0.198916
	-0.135456
	-0.091325
	-0.045583
	-0.020135
	0.023352
	0.045901
	0.128044
	0.179906
	0.303604
	0.405718
	0.479164
	0.491404
	0.556797
	0.607371
	0.655690
	0.684360
	0.772301
	0.838337
	0.888911
	0.920802
	0.978786
	1.025172
	1.090887
	1.142105
	1.211685
	1.263871
	1.305103
	1.331196
	1.436533
	1.524152
	1.589545
	1.601786
	1.666534
	1.714854
	1.763818
	1.784434
	1.873987
	1.932615
	1.984156
	2.008638
	2.017658
	2.015403
	2.007994
	2.007027
	1.999618
	1.997041
	1.963862
	1.942279
	1.939702
	1.959030
	1.962251
	1.944856
	1.913287
	1.899113
	1.836297
	1.785723
	1.764462
	1.748678
	1.745134
	1.735470
	1.732249
	1.719686
	1.693271
	1.665568
	1.653327
	1.645918
	1.641086
	1.635609
	1.644629
	1.669755
	1.647850
	1.610483
	1.543802
	1.508046
	1.431056
	1.384347
	1.330229
	1.299627
	1.204276
	1.135985
	1.074458
	1.038057
	0.996181
	0.963323
	0.928856
	0.897609
	0.807091
	0.734612
	0.700466
	0.693379
	0.668575
	0.623155
	0.531348
	0.473365
	0.392833
	0.340326
	0.291041
	0.261727
	0.192792
	0.148982
	0.098730
	0.071349
	-0.023678
	-0.087137
	-0.118062
	-0.123538
	-0.196016
	-0.246268
	-0.272361
	-0.267529
	-0.289111
	-0.331632
	-0.371898
	-0.391225
	-0.447598
	-0.494950
	-0.535860
	-0.564852
	-0.598353
	-0.624767
	-0.631532
	-0.635075
	-0.666966
	-0.682750
	-0.745565
	-0.785186
	-0.829318
	-0.851544
	-0.839948
	-0.801937
	-0.817077
	-0.854121
	-0.920157
	-0.956880
	-1.022593
	-1.069302
	-1.081865
	-1.091206
	-1.086052
	-1.087985
	-1.084764
	-1.084442
	-1.106346
	-1.126640
	-1.130506
	-1.129217
	-1.127607
	-1.122453
	-1.096360
	-1.053195
	-1.066081
	-1.105702
	-1.147256
	-1.157242
	-1.161752
	-1.162718
	-1.158209
	-1.157564
	-1.206850
	-1.246149
	-1.258068
	-1.268376
	-1.263222
	-1.264832
	-1.257101
	-1.252914
	-1.275462
	-1.292535
	-1.244860
	-1.180435
	-1.105058
	-1.077355
	-1.064792
	-1.043210
	-1.007454
	-0.977174
	-0.913071
	-0.863463
	-0.816755
	-0.790663
	-0.745565
	-0.724627
	-0.682106
	-0.658591
	-0.586434
	-0.539404
	-0.489796
	-0.459838
	-0.397346
	-0.332276
	-0.283313
	-0.275260
	-0.241758
	-0.207613
	-0.169602
	-0.139644
	-0.101955
	-0.078118
	0.002736
	0.054277
	0.132554
	0.176041
	0.227259
	0.251741
	0.295873
	0.317455
	0.329696
	0.333562
	0.410872
	0.481418
	0.536502
	0.544233
	0.551642
	0.566460
	0.566138
	0.571292
	0.597063
	0.616068
	0.678883
	0.717539
	0.759738
	0.780998
	0.793561
	0.793239
	0.823841
	0.843813
	0.876026
	0.899542
	0.980718
	1.054486
	1.081223
	1.071881
	1.043856
	1.032259
	0.969444
	0.917903
	0.876026
	0.841558
	0.803225
	0.776488
	0.759416
	0.754261
	0.719794
	0.699500
	0.631208
	0.589654
	0.541979
	0.514276
	0.524262
	0.548743
	0.531026
	0.486250
	0.425046
	0.383169
	0.316811
	0.265915
	0.249486
	0.241111
	0.209864
	0.188604
	0.146727
	0.124178
	0.055887
	0.016910
	-0.072964
	-0.127403
	-0.205358
	-0.254966
	-0.305218
	-0.319713
	-0.376408
	-0.451141
	-0.523620
	-0.568395
	-0.663745
	-0.730425
	-0.782287
	-0.813856
	-0.903407
	-0.968154
	-1.025171
	-1.051263
	-1.149833
	-1.211037
	-1.264832
	-1.289958
	-1.354705
	-1.396582
	-1.435881
	-1.444579
	-1.494830
	-1.570852
	-1.642364
	-1.681019
	-1.774113
	-1.837894
	-1.834673
	-1.818244
	-1.814701
	-1.805359
	-1.802782
	-1.797950
	-1.794729
	-1.784743
	-1.725472
	-1.678442
	-1.653638
	-1.646873
	-1.605641
	-1.562154
	-1.539284
	-1.564409
	-1.562477
	-1.554423
	-1.548625
	-1.541538
	-1.538639
	-1.531875
	-1.529298
	-1.520600
	-1.491931
	-1.467127
	-1.454242
	-1.449733
	-1.439747
	-1.436525
	-1.427506
	-1.426539
	-1.308319
	-1.206850
	-1.134371
	-1.126318
	-1.117621
	-1.099260
	-1.065436
	-1.037411
	-0.944639
	-0.871838
	-0.817399
	-0.780999
	-0.711419
	-0.666644
	-0.615748
	-0.588367
	-0.518143
	-0.473368
	-0.394125
	-0.348383
	-0.267851
	-0.208579
	-0.153173
	-0.152207
	-0.086493
	-0.033020
	0.016910
	0.045579
	0.083268
	0.111615
	0.186027
	0.242721
	0.315522
	0.364808
	0.408940
	0.440508
	0.477231
	0.501390
	0.511699
	0.513309
	0.593841
	0.661488
	0.718183
	0.715606
	0.734289
	0.741054
	0.747175
	0.749430
	0.776488
	0.792595
	0.854122
	0.894710
	0.931110
	0.960102
	0.964290
	0.968800
	0.993926
	1.017763
	1.048043
	1.069304
	1.155635
	1.224249
	1.253240
	1.234879
	1.240677
	1.245509
	1.248086
	1.245187
	1.246476
	1.240677
	1.237134
	1.233912
	1.255495
	1.270313
	1.271602
	1.276434
	1.268703
	1.270635
	1.264193
	1.263548
	1.308647
	1.354389
	1.368885
	1.347624
	1.324753
	1.305748
	1.302204
	1.293184
	1.348269
	1.381126
	1.397877
	1.397233
	1.393689
	1.392401
	1.383381
	1.383381
	1.322176
	1.282232
	1.231013
	1.205243
	1.183982
	1.184304
	1.156279
	1.105060
	1.010999
	0.950760
	0.899220
	0.863141
	0.826418
	0.794528
	0.757483
	0.730424
	0.661488
	0.616068
	0.565816
	0.537469
	0.493015
	0.472399
	0.429234
	0.406685
	0.363842
	0.352567
	0.315844
	0.264304
	0.199556
	0.159612
	0.093254
	0.042680
	0.028184
	0.016588
	-0.052348
	-0.106465
	-0.153173
	-0.184742
	-0.225330
	-0.246590
	-0.258187
	-0.257865
	-0.317458
	-0.353537
	-0.372220
	-0.362234
	-0.388971
	-0.437290
	-0.472401
	-0.487541
	-0.521365
	-0.542947
	-0.549390
	-0.555832
	-0.608983
	-0.652148
	-0.664067
	-0.673731
	-0.699823
	-0.720117
	-0.724627
	-0.724627
	-0.755229
	-0.770369
	-0.723338
	-0.665033
	-0.645383
	-0.665033
	-0.665033
	-0.654725
	-0.649249
	-0.649893
	-0.585468
	-0.546813
	-0.523942
	-0.519432
	-0.484642
	-0.466925
	-0.454684
	-0.451141
	-0.419250
	-0.396702
	-0.358691
	-0.333887
	-0.238215
	-0.157361
	-0.131269
	-0.146409
	-0.144476
	-0.133846
	-0.100989
	-0.080373
	0.002414
	0.051700
	0.078436
	0.080369
	0.170887
	0.227581
	0.280410
	0.310368
	0.406363
	0.472077
	0.523617
	0.555830
	0.674051
	0.767469
	0.829318
	0.835438
	0.877315
	0.908884
	0.979752
	1.020340
	1.095719
	1.135663
	1.185271
	1.206854
	1.298661
	1.356644
	1.406574
	1.435888
	1.525441
	1.588900
	1.636898
	1.666534
	1.778636
	1.861424
	1.920052
	1.926494
	1.914575
	1.902334
	1.900080
	1.889127
	1.886872
	1.881396
	1.847250
	1.822768
	1.804728
	1.796353
	1.785723
	1.785723
	1.777347
	1.775092
	1.714854
	1.666534
	1.672655
	1.681996
	1.685540
	1.658159
	1.635287
	1.618214
	1.581491
	1.558620
	1.541225
	1.535749
	1.526407
	1.523186
	1.514810
	1.514488
	1.477121
	1.453605
	1.415272
	1.388213
	1.319921
	1.269669
	1.247442
	1.238100
	1.154668
	1.063184
	0.984262
	0.941741
	0.890200
	0.864752
	0.821264
	0.797105
	0.695312
	0.632497
	0.572581
	0.537469
	0.496881
	0.467245
	0.403463
	0.357721
	0.284920
	0.234346
	0.216629
	0.215985
	0.156713
	0.090033
	0.014011
	-0.018524
	-0.121927
	-0.185708
	-0.280736
	-0.341296
	-0.419895
	-0.470791
	-0.545846
	-0.597709
	-0.668577
	-0.716896
	-0.760061
	-0.784542
	-0.880858
	-0.940129
	-0.961067
	-0.954303
	-1.039022
	-1.125996
	-1.210715
	-1.247437
	-1.349229
	-1.413010
	-1.464550
	-1.492897
	-1.557000
	-1.601132
	-1.668778
	-1.716131
	-1.784743
	-1.828874
	-1.870751
	-1.891045
	-1.982206
	-2.040189
	-1.996380
	-1.941296
	-1.922935
	-1.947095
	-1.974153
	-1.979307
	-1.981562
	-1.974153
	-1.912949
	-1.869140
	-1.844659
	-1.836605
	-1.826942
	-1.825009
	-1.815667
	-1.812446
	-1.774757
	-1.751886
	-1.738679
	-1.728371
	-1.687461
	-1.641397
	-1.627868
	-1.652028
	-1.651705
	-1.637210
	-1.629801
	-1.624647
	-1.617238
	-1.614983
	-1.607252
	-1.606930
	-1.512225
	-1.454564
	-1.394971
	-1.359537
	-1.317017
	-1.284482
	-1.244538
	-1.214259
	-1.078643
	-0.975241
	-0.908239
	-0.902763
	-0.858953
	-0.824486
	-0.780999
	-0.753618
	-0.682428
	-0.641840
	-0.558731
	-0.514922
	-0.464026
	-0.436323
	-0.394769
	-0.367710
	-0.271716
	-0.204714
	-0.154140
	-0.118384
	-0.048482
	0.008534
	0.101307
	0.124178
	0.178940
	0.213408
	0.259150
	0.278800
	0.323898
	0.340648
	0.410872
	0.450494
	0.493337
	0.518141
	0.554219
	0.579346
	0.614780
	0.642483
	0.704976
	0.748785
	0.819009
	0.870872
	0.916292
	0.914038
	0.926923
	0.933687
	1.001335
	1.036125
	1.083800
	1.106671
	1.143072
	1.163688
	1.195901
	1.217484
	1.276756
	1.319277
	1.356966
	1.384025
	1.390468
	1.391434
	1.416883
	1.438465
	1.443297
	1.413017
	1.420426
	1.422037
	1.424936
	1.422681
	1.420748
	1.417205
	1.412695
	1.409151
	1.457793
	1.495805
	1.503858
	1.508046
	1.506757
	1.503214
	1.501281
	1.496127
	1.547668
	1.582136
	1.597598
	1.568928
	1.547990
	1.532205
	1.528662
	1.520931
	1.547668
	1.560875
	1.593088
	1.611772
	1.667823
	1.706800
	1.713565
	1.719686
	1.746745
	1.766073
	1.797319
	1.817292
	1.874953
	1.911676
	1.926494
	1.899757
	1.938735
	1.961285
	1.999618
	2.013792
	2.050837
	2.065011
	2.072098
	2.067910
	2.091748
	2.102701
	2.161329
	2.199663
	2.237352
	2.262801
	2.264089
	2.265378
	2.279230
	2.297913
	2.266022
	2.222856
	2.133625
	2.075642
	2.021845
	1.987055
	1.972559
	1.956775
	1.925528
	1.896536
	1.852404
	1.824379
	1.750932
	1.706156
	1.682641
	1.675876
	1.633355
	1.611450
	1.590511
	1.587290
	1.551211
	1.501603
	1.468101
	1.452317
	1.386280
	1.339571
	1.292862
	1.259039
	1.218772
	1.187848
	1.147582
	1.118268
	1.048366
	1.002301
	0.951727
	0.925956
	0.822875
	0.762315
	0.730746
	0.726558
	0.689191
	0.639584
	0.575802
	0.544556
	0.438897
	0.372861
	0.319388
	0.283632
	0.244654
	0.216629
	0.149304
	0.101307
	0.028506
	-0.019491
	-0.065233
	-0.089714
	-0.161549
	-0.201815
	-0.218243
	-0.213733
	-0.301352
	-0.389937
	-0.511379
	-0.577093
	-0.632176
	-0.666644
	-0.701756
	-0.727848
	-0.791307
	-0.834794
	-0.877959
	-0.906628
	-0.942062
	-0.961390
	-1.000689
	-1.015185
	-1.084764
	-1.121486
	-1.043210
	-0.975563
	-0.953658
	-0.973952
	-0.996823
	-1.001977
	-1.003588
	-1.000367
	-0.968798
	-0.949471
	-0.935297
	-0.934331
	-0.928855
	-0.928211
	-0.922734
	-0.922412
	-0.915648
	-0.911782
	-0.939485
	-0.954625
	-0.925311
	-0.891488
	-0.945605
	-1.012930
	-1.051907
	-1.063504
	-1.096360
	-1.118587
	-1.119553
	-1.126318
	-1.149511
	-1.168194
	-1.142424
	-1.127929
	-1.115044
	-1.111178
	-1.104091
	-1.097005
	-1.097327
	-1.091206
	-1.022593
	-0.968154
	-0.951081
	-0.975563
	-0.998756
	-1.007454
	-1.005199
	-1.007131
	-0.941096
	-0.902440
	-0.851544
	-0.826419
	-0.782932
	-0.760383
	-0.721083
	-0.691125
	-0.624767
	-0.575160
	-0.528774
	-0.499460
	-0.422794
	-0.368032
	-0.278159
	-0.257543
	-0.197627
	-0.164448
	-0.115162
	-0.093580
	-0.049126
	-0.028832
	-0.015303
	-0.014014
	0.044613
	0.083590
	0.124823
	0.153170
	0.192792
	0.219206
	0.226615
	0.233380
	0.294906
	0.339038
	0.414094
	0.421180
	0.449206
	0.461124
	0.469178
	0.468533
	0.503001
	0.517819
	0.555508
	0.574514
	0.639584
	0.682105
	0.694668
	0.702721
	0.733967
	0.755872
	0.758771
	0.761993
	0.793239
	0.812245
	0.819332
	0.787763
	0.797427
	0.801292
	0.806124
	0.802903
	0.803869
	0.802903
	0.799360
	0.797105
	0.822231
	0.838337
	0.840914
	0.846713
	0.842847
	0.844458
	0.840270
	0.840914
	0.925312
	0.984906
	1.003912
	0.980074
	0.961713
	0.949794
	0.945928
	0.939808
	0.881180
	0.835760
	0.791628
	0.761348
	0.721726
	0.692735
	0.650858
	0.628309
	0.552287
	0.514276
	0.461769
	0.436965
	0.425368
	0.426979
	0.393477
	0.341615
	0.251741
	0.196979
	0.150593
	0.118702
	0.080047
	0.055243
	0.015299
	-0.009827
	-0.079406
	-0.120639
	-0.170246
	-0.191185
	-0.232417
	-0.251422
	-0.320358
	-0.360301
	-0.414419
	-0.439867
	-0.482065
	-0.544880
	-0.602541
	-0.637975
	-0.706910
	-0.749430
	-0.794850
	-0.818688
	-0.856376
	-0.876026
	-0.918547
	-0.935619
	-1.007131
	-1.042887
	-1.058672
	-1.058672
	-1.058994
	-1.056739
	-1.013574
	-0.985871
	-0.999400
	-1.055772
	-1.080898
	-1.092495
	-1.092173
	-1.092173
	-1.090562
	-1.087019
	-1.116010
	-1.131472
	-1.139525
	-1.137915
	-1.168194
	-1.179469
	-1.244216
	-1.279006
	-1.322171
	-1.343109
	-1.309608
	-1.279650
	-1.300266
	-1.359215
	-1.444256
	-1.494186
	-1.538317
	-1.565698
	-1.538317
	-1.523821
	-1.450055
	-1.407534
	-1.355672
	-1.325392
	-1.311541
	-1.302521
	-1.266121
	-1.239384
	-1.170449
	-1.121164
	-1.035479
	-0.972986
	-0.955269
	-0.981683
	-0.944639
	-0.909849
	-0.838659
	-0.791307
	-0.738800
	-0.713352
	-0.669221
	-0.645061
	-0.544236
	-0.487541
	-0.424727
	-0.400245
	-0.351282
	-0.328411
	-0.240470
	-0.189252
	-0.071031
	0.000481
	0.056209
	0.050411
	0.068450
	0.084234
	0.088422
	0.092610
	0.149949
	0.188604
	0.232413
	0.258828
	0.295228
	0.319066
	0.324220
	0.329374
	0.361265
	0.380270
	0.388968
	0.390900
	0.486572
	0.542301
	0.566782
	0.538757
	0.551642
	0.562917
	0.562273
	0.563239
	0.592553
	0.611236
	0.615424
	0.619934
	0.613813
	0.613169
	0.579346
	0.561951
	0.551965
	0.550354
	0.515242
	0.496558
	0.524262
	0.539079
	0.487861
	0.413449
	0.378982
	0.360942
	0.325508
	0.301349
	0.294262
	0.288141
	0.253996
	0.236279
	0.191825
	0.169598
	0.099374
	0.060075
	0.041069
	0.038492
	0.003380
	-0.013048
	-0.014337
	-0.012726
	-0.072320
	-0.148342
	-0.183776
	-0.202137
	-0.279769
	-0.332276
	-0.378662
	-0.406365
	-0.445021
	-0.466925
	-0.476589
	-0.481099
	-0.543269
	-0.577093
	-0.624445
	-0.641840
	-0.685005
	-0.701111
	-0.669221
	-0.642806
	-0.667288
	-0.718184
	-0.810312
	-0.858631
	-0.904051
	-0.932720
	-0.937552
	-0.941740
	-0.968476
	-0.990381
	-1.022271
	-1.045464
	-1.108923
	-1.149189
	-1.101514
	-1.063826
	-1.022271
	-0.991347
	-0.909527
	-0.854121
	-0.837693
	-0.863141
	-0.855732
	-0.844458
	-0.775200
	-0.737190
	-0.684683
	-0.660523
	-0.643451
	-0.643129
	-0.605440
	-0.589978
	-0.549390
	-0.524264
	-0.453074
	-0.407010
	-0.389293
	-0.378018
	-0.310372
	-0.258187
	-0.216633
	-0.225008
	-0.162193
	-0.123216
	-0.103888
	-0.100667
	-0.033664
	0.001448
	0.052344
	0.072638
	0.114192
	0.134164
	0.202455
	0.243688
	0.289752
	0.316489
	0.355466
	0.382847
	0.453393
	0.502357
	0.574836
	0.582567
	0.609626
	0.620900
	0.660522
	0.675984
	0.715928
	0.731712
	0.805480
	0.842525
	0.886979
	0.911461
	0.945606
	0.967189
	1.001335
	1.026139
	1.090887
	1.134052
	1.177862
	1.201377
	1.206854
	1.175607
	1.155635
	1.142105
	1.078646
	1.033226
	1.019374
	1.007455
	1.003912
	0.998758
	0.994892
	0.990382
	0.953660
	0.935942
	0.921769
	0.920480
	0.914682
	0.915004
	0.942707
	0.964934
	0.934976
	0.884724
	0.856376
	0.839948
	0.836727
	0.828995
	0.829318
	0.823519
	0.796138
	0.769079
	0.790340
	0.802259
	0.805480
	0.806124
	0.834150
	0.854122
	0.854766
	0.860886
	0.923057
	0.963001
	0.970732
	0.942063
	0.982973
	1.008099
	1.020018
	1.017763
	1.052231
	1.062539
	1.070915
	1.066405
	1.098940
	1.109570
	1.117301
	1.116979
	1.177540
	1.213618
	1.224571
	1.230691
	1.286420
	1.325720
	1.328297
	1.306714
	1.283521
	1.275467
	1.265481
	1.264515
	1.259039
	1.254851
	1.224571
	1.200089
	1.189136
	1.178506
	1.178184
	1.170131
	1.170775
	1.166265
	1.103450
	1.062539
	1.077679
	1.086699
	1.084766
	1.055130
	1.027749
	1.023884
	0.983295
	0.965256
	0.949794
	0.947217
	0.941096
	0.938197
	0.934654
	0.927889
	0.897931
	0.875382
	0.807735
	0.763281
	0.718827
	0.689514
	0.681138
	0.678561
	0.642161
	0.586110
	0.495270
	0.444374
	0.387679
	0.367063
	0.320032
	0.298450
	0.254640
	0.234346
	0.159935
	0.120957
	0.071672
	0.045257
	0.008212
	-0.016591
	-0.055569
	-0.077796
	-0.108076
	-0.128692
	-0.165092
	-0.225974
	-0.284279
	-0.314237
	-0.388004
	-0.426337
	-0.445343
	-0.447920
	-0.530062
	-0.572261
	-0.626056
	-0.648927
	-0.690159
	-0.706910
	-0.715285
	-0.713996
	-0.776167
	-0.809024
	-0.811601
	-0.810312
	-0.843491
	-0.899863
	-0.924989
	-0.939807
	-0.969121
	-0.990703
	-1.055450
	-1.095394
	-1.135338
	-1.160786
	-1.167550
	-1.167872
	-1.200729
	-1.214259
	-1.250014
	-1.264510
	-1.333123
	-1.362759
	-1.336666
	-1.307353
	-1.305420
	-1.339566
	-1.359537
	-1.364369
	-1.396260
	-1.414621
	-1.414621
	-1.417842
	-1.410433
	-1.412366
	-1.407534
	-1.407534
	-1.433626
	-1.451343
	-1.451987
	-1.448122
	-1.449088
	-1.437492
	-1.393683
	-1.359215
	-1.417520
	-1.483878
	-1.518990
	-1.528653
	-1.532197
	-1.529942
	-1.525754
	-1.523821
	-1.547015
	-1.566664
	-1.536384
	-1.519956
	-1.443934
	-1.404635
	-1.344720
	-1.317983
	-1.267731
	-1.238740
	-1.120842
	-1.050618
	-0.997146
	-1.007776
	-0.987482
	-0.967188
	-0.932720
	-0.905984
	-0.834794
	-0.789052
	-0.741055
	-0.711742
	-0.671476
	-0.649571
	-0.604473
	-0.583857
	-0.506225
	-0.464993
	-0.415063
	-0.387038
	-0.303607
	-0.256576
	-0.166381
	-0.150919
	-0.060401
	-0.002418
	0.046546
	0.076826
	0.177007
	0.239178
	0.292973
	0.317455
	0.423757
	0.475942
	0.533281
	0.557441
	0.633141
	0.669864
	0.752973
	0.797105
	0.906951
	0.970088
	1.016475
	1.013576
	1.092820
	1.142428
	1.188492
	1.217484
	1.314123
	1.370496
	1.423003
	1.442653
	1.543158
	1.595987
	1.647850
	1.667178
	1.680386
	1.678131
	1.678453
	1.677809
	1.701646
	1.714209
	1.679741
	1.631422
	1.600497
	1.590833
	1.577626
	1.574082
	1.567318
	1.564096
	1.496127
	1.455538
	1.435566
	1.422037
	1.419460
	1.411084
	1.410440
	1.405608
	1.371784
	1.351490
	1.373395
	1.384025
	1.379193
	1.348913
	1.327652
	1.318311
	1.278366
	1.257106
	1.210719
	1.190425
	1.113758
	1.069948
	1.017763
	0.988127
	0.882147
	0.819976
	0.766825
	0.733323
	0.693701
	0.670830
	0.663099
	0.658589
	0.557119
	0.465634
	0.390256
	0.355466
	0.303281
	0.282021
	0.207609
	0.171531
	0.087134
	0.045257
	-0.005317
	-0.034631
	-0.102922
	-0.146087
	-0.188930
	-0.215022
	-0.314881
	-0.369965
	-0.427626
	-0.460483
	-0.508802
	-0.570650
	-0.630566
	-0.660201
	-0.733646
	-0.772946
	-0.819654
	-0.841559
	-0.884079
	-0.900186
	-0.942062
	-0.960423
	-1.034190
	-1.067047
	-1.113111
	-1.129539
	-1.169161
	-1.182690
	-1.177214
	-1.169161
	-1.235197
	-1.309608
	-1.373389
	-1.407212
	-1.448122
	-1.471637
	-1.535740
	-1.576328
	-1.614661
	-1.641397
	-1.611440
	-1.596300
	-1.586636
	-1.577939
	-1.572462
	-1.566342
	-1.561832
	-1.548947
	-1.442002
	-1.369523
	-1.354061
	-1.380153
	-1.396904
	-1.400125
	-1.401414
	-1.399481
	-1.359215
	-1.338599
	-1.322171
	-1.319594
	-1.313473
	-1.312185
	-1.308319
	-1.305420
	-1.264832
	-1.240673
	-1.234875
	-1.216836
	-1.173349
	-1.138237
	-1.136626
	-1.169483
	-1.189777
	-1.193642
	-1.224889
	-1.243572
	-1.245183
	-1.246793
	-1.276107
	-1.298011
	-1.299300
	-1.304454
	-1.360826
	-1.393361
	-1.402058
	-1.401092
	-1.435881
	-1.442324
	-1.404313
	-1.371456
	-1.402058
	-1.453598
	-1.479690
	-1.490643
	-1.522855
	-1.539928
	-1.542183
	-1.542505
	-1.598233
	-1.635277
	-1.641397
	-1.647196
	-1.674898
	-1.690360
	-1.660081
	-1.639787
	-1.628512
	-1.612728
	-1.565376
	-1.525432
	-1.526076
	-1.561188
	-1.515768
	-1.483878
	-1.470026
	-1.464550
	-1.454564
	-1.453598
	-1.445545
	-1.443290
	-1.406890
	-1.386596
	-1.375321
	-1.366302
	-1.362114
	-1.352128
	-1.353095
	-1.337955
	-1.260967
	-1.209104
	-1.201051
	-1.232942
	-1.249692
	-1.258390
	-1.254202
	-1.255813
	-1.217480
	-1.197830
	-1.120842
	-1.082187
	-1.029036
	-1.000689
	-0.958490
	-0.927888
	-0.858309
	-0.812245
	-0.764248
	-0.728814
	-0.645061
	-0.590622
	-0.552611
	-0.565818
	-0.510412
	-0.481421
	-0.433746
	-0.411519
	-0.365777
	-0.345806
	-0.299419
	-0.281702
	-0.207935
	-0.168313
	-0.122249
	-0.095835
	-0.054925
	-0.029477
	0.056209
	0.112260
	0.228548
	0.297805
	0.345802
	0.335494
	0.359976
	0.370606
	0.376727
	0.375760
	0.441152
	0.472399
	0.521684
	0.541334
	0.579346
	0.599317
	0.605116
	0.609948
	0.640228
	0.661166
	0.726236
	0.771012
	0.848967
	0.891166
	0.900830
	0.867973
	0.884724
	0.890200
	0.926923
	0.940452
	1.014220
	1.052231
	1.061895
	1.068016
	1.095074
	1.112147
	1.114402
	1.117946
	1.116013
	1.113758
	1.113758
	1.111181
	1.175607
	1.205887
	1.212008
	1.177862
	1.163688
	1.152414
	1.143716
	1.144038
	1.168198
	1.185593
	1.186881
	1.187526
	1.180439
	1.178184
	1.176251
	1.170453
	1.236490
	1.264515
	1.278366
	1.281588
	1.317022
	1.328619
	1.327975
	1.296084
	1.210719
	1.166909
	1.110859
	1.085411
	1.037735
	1.018408
	0.971377
	0.948505
	0.870228
	0.825130
	0.775522
	0.747175
	0.704976
	0.679205
	0.641838
	0.619612
	0.583855
	0.563239
	0.514598
	0.455648
	0.397021
	0.365130
	0.318422
	0.298450
	0.219850
	0.184416
	0.133842
	0.110327
	0.064907
	0.042036
	-0.028832
	-0.071353
	-0.159938
	-0.215022
	-0.294265
	-0.331310
	-0.371576
	-0.388648
	-0.471435
	-0.547457
	-0.616392
	-0.646350
	-0.757806
	-0.808702
	-0.866362
	-0.890844
	-0.993602
	-1.051263
	-1.103769
	-1.132116
	-1.235519
	-1.295434
	-1.341176
	-1.368235
	-1.437492
	-1.465195
	-1.496763
	-1.506105
	-1.585992
	-1.663624
	-1.733203
	-1.758007
	-1.865275
	-1.916493
	-1.902963
	-1.891367
	-1.882347
	-1.878160
	-1.870751
	-1.871073
	-1.861087
	-1.856899
	-1.785065
	-1.740934
	-1.725150
	-1.704856
	-1.653316
	-1.615627
	-1.614983
	-1.649773
	-1.634633
	-1.624325
	-1.614983
	-1.610473
	-1.601776
	-1.601454
	-1.591146
	-1.589535
	-1.553779
	-1.529942
	-1.523499
	-1.511903
	-1.507071
	-1.498374
	-1.496763
	-1.479690
	-1.336344
	-1.252592
	-1.195575
	-1.209749
	-1.182046
	-1.166584
	-1.123419
	-1.101192
	-0.989414
	-0.929499
	-0.872805
	-0.840914
	-0.769080
	-0.725915
	-0.676952
	-0.647316
	-0.570650
	-0.528129
	-0.445021
	-0.397024
	-0.301030
	-0.256898
	-0.211156
	-0.227585
	-0.139966
	-0.090681
	-0.039140
	-0.014014
	0.027540
	0.052666
	0.137386
	0.188282
	0.297483
	0.359010
	0.411839
	0.441797
	0.547777
	0.604149
	0.659556
	0.688547
	0.832539
	0.904052
	0.957525
	0.948505
	1.006167
	1.035158
	1.111503
	1.152091
	1.225537
	1.267736
	1.309935
	1.333773
	1.430734
	1.484208
	1.532527
	1.558942
	1.662668
	1.711955
	1.766073
	1.791521
	1.924239
	1.988666
	2.041173
	2.033764
	2.028288
	2.019913
	2.012504
	2.007994
	2.001551
	1.997041
	1.954520
	1.934548
	1.916186
	1.908777
	1.900724
	1.897180
	1.891382
	1.885906
	1.818258
	1.779602
	1.796031
	1.797964
	1.791521
	1.757375
	1.739014
	1.726450
	1.686828
	1.664923
	1.648817
	1.646240
	1.634965
	1.631422
	1.624013
	1.617892
	1.578592
	1.559909
	1.518998
	1.491939
	1.417205
	1.375328
	1.359543
	1.345370
	1.239389
	1.149192
	1.074780
	1.039990
	0.987483
	0.964934
	0.917581
	0.895032
	0.783253
	0.725914
	0.664710
	0.633463
	0.593519
	0.564205
	0.494304
	0.452749
	0.373183
	0.333884
	0.324864
	0.315844
	0.241111
	0.170887
	0.100985
	0.072316
	-0.040751
	-0.094868
	-0.120317
	-0.127403
	-0.213733
	-0.256254
	-0.308117
	-0.336142
	-0.374153
	-0.397346
	-0.399601
	-0.404755
	-0.466603
	-0.494950
	-0.499782
	-0.496883
	-0.544880
	-0.595776
	-0.624767
	-0.632498
	-0.667288
	-0.683394
	-0.756839
	-0.793884
	-0.835760
	-0.861852
	-0.867651
	-0.874415
	-0.902763
	-0.921446
	-0.953658
	-0.971698
	-1.039022
	-1.066403
	-0.972020
	-0.915003
	-0.876026
	-0.886656
	-0.864752
	-0.845102
	-0.842847
	-0.833505
	-0.799360
	-0.778100
	-0.703044
	-0.665355
	-0.615104
	-0.593199
	-0.577093
	-0.574516
	-0.535216
	-0.515244
	-0.472401
	-0.441477
	-0.329055
	-0.266562
	-0.255932
	-0.280736
	-0.267207
	-0.252389
	-0.216310
	-0.193439
	-0.106465
	-0.057824
	-0.039785
	-0.033342
	0.035271
	0.065873
	0.116769
	0.137063
	0.183772
	0.202778
	0.213408
	0.224360
	0.324864
	0.381559
	0.417959
	0.412483
	0.432777
	0.448239
	0.449528
	0.455970
	0.484318
	0.503001
	0.509766
	0.509444
	0.574836
	0.603183
	0.616712
	0.617357
	0.656012
	0.670508
	0.678239
	0.687581
	0.753939
	0.787763
	0.790018
	0.760704
	0.741054
	0.736222
	0.693701
	0.677917
	0.667609
	0.662133
	0.628631
	0.606726
	0.596740
	0.587077
	0.525228
	0.483995
	0.474009
	0.464346
	0.429234
	0.416348
	0.446629
	0.460480
	0.421180
	0.369962
	0.309724
	0.285564
	0.203744
	0.167666
	0.149949
	0.143828
	0.108394
	0.090355
	0.047512
	0.023997
	-0.045905
	-0.089070
	-0.179588
	-0.229840
	-0.278159
	-0.298453
	-0.297809
	-0.296198
	-0.375763
	-0.445021
	-0.513634
	-0.540370
	-0.587401
	-0.606084
	-0.645706
	-0.664067
	-0.739122
	-0.775200
	-0.822553
	-0.847357
	-0.883757
	-0.906628
	-0.940451
	-0.959779
	-1.026137
	-1.053840
	-1.054484
	-1.053195
	-1.100870
	-1.155954
	-1.248726
	-1.289636
	-1.340210
	-1.357927
	-1.367590
	-1.363725
	-1.363081
	-1.362114
	-1.358249
	-1.358249
	-1.384663
	-1.399481
	-1.397870
	-1.399481
	-1.392394
	-1.381764
	-1.330546
	-1.302199
	-1.338277
	-1.391750
	-1.415265
	-1.419131
	-1.423640
	-1.417520
	-1.415587
	-1.410111
	-1.473892
	-1.500951
	-1.513513
	-1.517379
	-1.513191
	-1.511581
	-1.504172
	-1.502239
	-1.528009
	-1.533807
	-1.485166
	-1.463906
	-1.499340
	-1.553779
	-1.605964
	-1.631089
	-1.704212
	-1.734492
	-1.749632
	-1.748665
	-1.779911
	-1.793119
	-1.833062
	-1.844659
	-1.884602
	-1.895232
	-1.897165
	-1.896843
	-1.959335
	-1.978663
	-1.968033
	-1.962879
	-2.002178
	-2.063704
	-2.085286
	-2.094950
	-2.122975
	-2.138437
	-2.203829
	-2.233786
	-2.273730
	-2.293057
	-2.267287
	-2.244416
	-2.172904
	-2.125230
	-2.073368
	-2.039867
	-2.028592
	-2.002822
	-1.914882
	-1.863020
	-1.826942
	-1.843692
	-1.782488
	-1.751564
	-1.730626
	-1.723862
	-1.679730
	-1.658792
	-1.611118
	-1.590502
	-1.543793
	-1.520278
	-1.509004
	-1.497729
	-1.427828
	-1.384663
	-1.336666
	-1.296079
	-1.208460
	-1.154665
	-1.150478
	-1.181402
	-1.098937
	-1.053195
	-0.998112
	-0.974275
	-0.924345
	-0.903085
	-0.856376
	-0.832861
	-0.722694
	-0.665677
	-0.609950
	-0.576126
	-0.501715
	-0.456939
	-0.411197
	-0.372542
	-0.256898
	-0.193117
	-0.119028
	-0.114518
	-0.080051
	-0.066199
	-0.023034
	-0.003384
	0.103240
	0.157035
	0.213408
	0.236923
	0.278478
	0.301993
	0.386068
	0.435998
	0.515242
	0.559374
	0.606404
	0.639261
	0.716572
	0.753295
	0.822553
	0.819976
	0.853799
	0.866362
	0.905018
	0.923057
	0.961391
	0.983295
	1.048043
	1.086055
	1.125033
	1.145327
	1.184627
	1.202988
	1.241321
	1.258072
	1.333773
	1.373395
	1.453928
	1.490006
	1.522541
	1.509656
	1.532850
	1.544446
	1.610161
	1.644307
	1.651072
	1.655259
	1.649783
	1.647528
	1.637542
	1.634321
	1.560875
	1.526085
	1.508690
	1.500959
	1.492905
	1.497093
	1.524474
	1.535427
	1.495160
	1.442331
	1.418171
	1.402709
	1.397555
	1.388857
	1.389179
	1.380482
	1.346980
	1.324109
	1.313157
	1.304137
	1.296728
	1.297050
	1.289963
	1.289963
	1.250019
	1.242932
	1.294151
	1.326364
	1.320888
	1.292540
	1.305748
	1.311224
	1.313157
	1.311868
	1.342470
	1.351812
	1.359865
	1.355356
	1.417849
	1.446196
	1.457471
	1.460370
	1.490973
	1.505146
	1.504180
	1.516421
	1.574405
	1.605973
	1.600497
	1.576659
	1.623368
	1.647850
	1.655904
	1.654615
	1.684573
	1.694882
	1.700036
	1.692949
	1.691982
	1.682641
	1.679097
	1.675232
	1.670077
	1.667500
	1.626912
	1.619503
	1.635287
	1.646562
	1.635609
	1.601464
	1.584068
	1.570539
	1.501603
	1.456505
	1.442975
	1.431378
	1.425902
	1.417849
	1.413661
	1.406252
	1.366630
	1.350524
	1.337638
	1.334417
	1.324753
	1.333773
	1.358899
	1.372751
	1.331196
	1.279333
	1.191713
	1.144360
	1.092820
	1.060284
	1.021629
	0.992637
	0.950438
	0.925956
	0.842847
	0.800970
	0.750718
	0.728169
	0.680172
	0.662455
	0.618001
	0.603183
	0.565172
	0.543589
	0.490438
	0.431166
	0.375438
	0.340648
	0.299416
	0.273968
	0.201489
	0.163800
	0.113870
	0.090677
	0.043646
	0.022708
	-0.053958
	-0.089070
	-0.184098
	-0.231128
	-0.282024
	-0.297164
	-0.299419
	-0.302641
	-0.378340
	-0.455651
	-0.514278
	-0.545846
	-0.587401
	-0.607373
	-0.648283
	-0.668254
	-0.745243
	-0.776811
	-0.795494
	-0.797427
	-0.798716
	-0.796461
	-0.793240
	-0.791951
	-0.820298
	-0.825130
	-0.782609
	-0.766181
	-0.769724
	-0.807413
	-0.820942
	-0.828996
	-0.861208
	-0.876992
	-0.883757
	-0.880214
	-0.916614
	-0.930143
	-1.004232
	-1.035156
	-1.083475
	-1.099260
	-1.104736
	-1.106346
	-1.138881
	-1.145001
	-1.169805
	-1.183012
	-1.231009
	-1.294146
	-1.280939
	-1.271275
	-1.198474
	-1.162396
	-1.107635
	-1.080254
	-1.068658
	-1.060604
	-1.025493
	-1.001977
	-0.929499
	-0.885368
	-0.837371
	-0.809024
	-0.799682
	-0.776167
	-0.667610
	-0.605440
	-0.533283
	-0.529096
	-0.491729
	-0.478522
	-0.435357
	-0.412164
	-0.304251
	-0.248523
	-0.194406
	-0.167669
	-0.128370
	-0.100022
	-0.015625
	0.034305
	0.118058
	0.161867
	0.208898
	0.247231
	0.324864
	0.362231
	0.365774
	0.334206
	0.386068
	0.411194
	0.455648
	0.472077
	0.515242
	0.533281
	0.541012
	0.544233
	0.574514
	0.592553
	0.658589
	0.699822
	0.739766
	0.764892
	0.769402
	0.787441
	0.849612
	0.886334
	0.914038
	0.903407
	0.963001
	0.989416
	1.001335
	1.000046
	1.004234
	0.992959
	0.927245
	0.886012
	0.837693
	0.808701
	0.766180
	0.745242
	0.733323
	0.731068
	0.692091
	0.683715
	0.642161
	0.626376
	0.568393
	0.512665
	0.488505
	0.473365
	0.435676
	0.412805
	0.374150
	0.345802
	0.276867
	0.235635
	0.221139
	0.211153
	0.174752
	0.156391
	0.116125
	0.098086
	0.019809
	-0.003706
	-0.062334
	-0.088104
	-0.148664
	-0.208579
	-0.265274
	-0.298131
	-0.369643
	-0.411197
	-0.455329
	-0.478844
	-0.518143
	-0.541337
	-0.579992
	-0.603829
	-0.679207
	-0.706588
	-0.655692
	-0.623157
	-0.612849
	-0.589978
	-0.548101
	-0.523297
	-0.529418
	-0.566140
	-0.545202
	-0.536183
	-0.528451
	-0.527485
	-0.522331
	-0.521365
	-0.521043
	-0.518143
	-0.521043
	-0.520720
	-0.554544
	-0.564852
	-0.572583
	-0.571616
	-0.640874
	-0.658591
	-0.626700
	-0.612204
	-0.652470
	-0.706588
	-0.725593
	-0.739444
	-0.772301
	-0.786797
	-0.759416
	-0.742344
	-0.734935
	-0.729136
	-0.733002
	-0.726882
	-0.728170
	-0.721405
	-0.686294
	-0.666322
	-0.657946
	-0.641518
	-0.593199
	-0.575804
	-0.578703
	-0.613171
	-0.560342
	-0.530062
	-0.485609
	-0.460805
	-0.421505
	-0.395413
	-0.356758
	-0.330988
	-0.259475
	-0.220820
	-0.172823
	-0.148664
	-0.103888
	-0.081983
	0.011756
	0.069739
	0.223394
	0.299416
	0.345480
	0.341937
	0.432777
	0.480774
	0.528127
	0.560340
	0.662455
	0.718183
	0.768757
	0.796138
	0.865718
	0.899220
	0.982651
	1.019374
	1.102161
	1.139850
	1.186559
	1.221672
	1.356000
	1.421714
	1.461337
	1.464558
	1.550567
	1.599853
	1.643341
	1.670400
	1.771227
	1.821157
	1.870765
	1.886228
	1.892670
	1.885906
	1.884617
	1.880752
	1.877208
	1.871088
	1.833720
	1.823090
	1.839197
	1.847572
	1.830821
	1.801185
	1.784112
	1.769294
	1.696170
	1.656548
	1.641408
	1.626268
	1.623691
	1.614349
	1.609839
	1.600175
	1.562486
	1.544124
	1.531883
	1.529306
	1.520931
	1.528662
	1.552822
	1.562808
	1.518676
	1.466169
	1.414950
	1.378549
	1.301882
	1.258716
	1.207176
	1.175929
	1.065438
	1.011321
	0.948828
	0.920158
	0.870228
	0.849934
	0.808057
	0.779710
	0.671474
	0.626054
	0.604149
	0.589976
	0.542623
	0.482385
	0.396699
	0.349668
	0.264626
	0.223716
	0.172820
	0.147372
	0.069739
	0.033983
	-0.017558
	-0.043328
	-0.149308
	-0.202459
	-0.221464
	-0.235638
	-0.316492
	-0.349027
	-0.356114
	-0.362556
	-0.410231
	-0.465959
	-0.487219
	-0.498494
	-0.569362
	-0.600930
	-0.649571
	-0.668254
	-0.711419
	-0.726237
	-0.734613
	-0.739767
	-0.771979
	-0.789052
	-0.859598
	-0.894065
	-0.934653
	-0.942706
	-0.904051
	-0.889233
	-0.931110
	-0.983616
	-1.034190
	-1.063181
	-1.135660
	-1.162396
	-1.112789
	-1.079288
	-1.070268
	-1.060282
	-1.061249
	-1.052551
	-1.053195
	-1.048041
	-1.043532
	-1.040633
	-1.035801
	-1.020016
	-0.972986
	-0.952048
	-0.956558
	-0.991669
	-0.971698
	-0.958490
	-0.954947
	-0.947860
	-0.947538
	-0.941096
	-0.943028
	-0.935297
	-0.937230
	-0.936586
	-0.931432
	-0.931432
	-0.923701
	-0.922090
	-0.916292
	-0.898897
	-0.820942
	-0.779710
	-0.750075
	-0.763926
	-0.774878
	-0.768758
	-0.704011
	-0.665677
	-0.617681
	-0.592555
	-0.583857
	-0.579025
	-0.542625
	-0.530062
	-0.518143
	-0.512667
	-0.473690
	-0.453718
	-0.375441
	-0.327122
	-0.272683
	-0.242403
	-0.222109
	-0.233705
	-0.210190
	-0.196661
	-0.193762
	-0.182487
	-0.102599
	-0.059434
	-0.043006
	-0.033664
	0.032050
	0.063940
	0.111615
	0.136097
	0.181517
	0.196335
	0.207932
	0.227259
	0.327119
	0.381237
	0.412805
	0.406685
	0.429556
	0.446306
	0.446951
	0.452749
	0.483995
	0.500424
	0.506222
	0.508799
	0.575480
	0.601250
	0.614135
	0.618967
	0.656012
	0.665676
	0.674374
	0.688869
	0.754906
	0.785186
	0.783575
	0.753939
	0.736867
	0.730424
	0.688225
	0.674051
	0.660522
	0.657301
	0.618001
	0.603505
	0.589332
	0.580634
	0.514598
	0.479808
	0.468211
	0.458547
	0.422791
	0.417637
	0.446951
	0.453393
	0.413771
	0.358688
	0.305859
	0.274290
	0.199556
	0.163800
	0.147694
	0.140929
	0.100985
	0.085845
	0.040103
	0.018520
	-0.057180
	-0.091969
	-0.189896
	-0.236282
	-0.321324
	-0.349671
	-0.389615
	-0.412486
	-0.501715
	-0.580636
	-0.637975
	-0.677596
	-0.783254
	-0.837693
	-0.887945
	-0.917580
	-1.022593
	-1.073167
	-1.129217
	-1.156276
	-1.266121
	-1.313473
	-1.365658
	-1.389173
	-1.461651
	-1.477435
	-1.510292
	-1.526398
	-1.615305
	-1.693904
	-1.751886
	-1.786676
	-1.888146
	-1.936142
	-1.916493
	-1.907151
	-1.896843
	-1.891689
	-1.885891
	-1.882669
	-1.876227
	-1.864308
	-1.795373
	-1.753819
	-1.739646
	-1.709688
	-1.658470
	-1.628190
	-1.639142
	-1.669422
	-1.651383
	-1.636888
	-1.629801
	-1.623680
	-1.618204
	-1.615949
	-1.606930
	-1.604675
	-1.565054
	-1.546370
	-1.534452
	-1.527365
	-1.519634
	-1.513513
	-1.509970
	-1.476791
	-1.335378
	-1.256135
	-1.216513
	-1.222634
	-1.196864
	-1.174959
	-1.135982
	-1.106346
	-0.993280
	-0.938519
	-0.880214
	-0.849934
	-0.772623
	-0.738156
	-0.684361
	-0.655692
	-0.577415
	-0.534250
	-0.454362
	-0.392192
	-0.306828
	-0.258831
	-0.231773
	-0.235316
	-0.148664
	-0.097123
	-0.049771
	-0.023356
	0.021097
	0.045257
	0.135453
	0.179906
	0.261083
	0.297161
	0.349990
	0.374472
	0.413771
	0.434066
	0.438897
	0.463701
	0.561306
	0.612847
	0.642805
	0.637329
	0.659556
	0.675018
	0.676628
	0.678561
	0.712707
	0.729458
	0.801292
	0.831572
	0.876671
	0.890200
	0.899542
	0.902763
	0.937875
	0.953337
	0.990382
	1.023884
	1.126321
	1.178184
	1.174641
	1.154668
	1.171097
	1.180761
	1.179472
	1.182694
	1.176895
	1.174318
	1.172063
	1.168520
	1.196223
	1.204599
	1.210397
	1.205565
	1.208464
	1.204599
	1.202344
	1.215873
	1.276112
	1.303170
	1.294795
	1.269669
	1.249053
	1.242932
	1.234557
	1.239711
	1.296084
	1.328619
	1.334739
	1.334095
	1.333451
	1.325075
	1.324431
	1.312190
	1.248730
	1.207820
	1.162077
	1.147904
	1.137273
	1.126643
	1.075425
	1.017119
	0.924346
	0.881180
	0.824808
	0.801614
	0.754906
	0.732035
	0.688225
	0.661488
	0.586754
	0.541656
	0.498169
	0.468855
	0.429878
	0.405396
	0.364486
	0.355144
	0.314878
	0.297483
	0.235312
	0.183128
	0.122890
	0.094543
	0.017876
	-0.022712
	-0.120639
	-0.168958
	-0.249167
	-0.299741
	-0.377052
	-0.423760
	-0.501071
	-0.539404
	-0.584824
	-0.612849
	-0.718828
	-0.749752
	-0.766181
	-0.773268
	-0.894065
	-0.977174
	-1.049330
	-1.082509
	-1.192676
	-1.246149
	-1.296401
	-1.325070
	-1.394649
	-1.436848
	-1.510292
	-1.553135
	-1.625613
	-1.663302
	-1.702923
	-1.728049
	-1.830163
	-1.852390
	-1.792796
	-1.755430
	-1.768315
	-1.797950
	-1.812446
	-1.811158
	-1.811158
	-1.799561
	-1.729016
	-1.695192
	-1.675221
	-1.667490
	-1.661691
	-1.659114
	-1.649451
	-1.643652
	-1.604353
	-1.584059
	-1.572462
	-1.546370
	-1.494186
	-1.469060
	-1.481945
	-1.510614
	-1.493542
	-1.478724
	-1.475180
	-1.463262
	-1.463262
	-1.455853
	-1.451343
	-1.436848
	-1.338921
	-1.286093
	-1.228754
	-1.201051
	-1.151122
	-1.127284
	-1.080254
	-1.031291
	-0.876348
	-0.805158
	-0.758450
	-0.763926
	-0.702722
	-0.669221
	-0.621868
	-0.594810
	-0.522331
	-0.475623
	-0.397668
	-0.354825
	-0.309727
	-0.283635
	-0.245624
	-0.211156
	-0.106787
	-0.048804
	0.001770
	0.046868
	0.125789
	0.173786
	0.246909
	0.258184
	0.328407
	0.357721
	0.407007
	0.428267
	0.467889
	0.486250
	0.491404
	0.500746
	0.558407
	0.594486
	0.633141
	0.659878
	0.698533
	0.719149
	0.723981
	0.745242
	0.811278
	0.845746
	0.905340
	0.904696
	0.938519
	0.946573
	0.953015
	0.954304
	0.988127
	1.003590
	1.038057
	1.059962
	1.125677
	1.158856
	1.167876
	1.173996
	1.170775
	1.173352
	1.169809
	1.179795
	1.211041
	1.218450
	1.206854
	1.172063
	1.159823
	1.147904
	1.144682
	1.140495
	1.131475
	1.129220
	1.050943
	1.018085
	1.000046
	0.988449
	0.983618
	0.980396
	0.981685
	0.974920
	0.976531
	0.985228
	1.018408
	1.030326
	1.013898
	0.983295
	0.965578
	0.957203
	0.916615
	0.900830
	0.888267
	0.884402
	0.845102
	0.826418
	0.814500
	0.805802
	0.771334
	0.743631
	0.676306
	0.637651
	0.625088
	0.627665
	0.627665
	0.619612
	0.569360
	0.518141
	0.493337
	0.482707
	0.440508
	0.425368
	0.413449
	0.408295
	0.337105
	0.304892
	0.254318
	0.232735
	0.222427
	0.219528
	0.184738
	0.161223
	0.092288
	0.070705
	0.096475
	0.097120
	0.004025
	-0.073286
	-0.132235
	-0.167669
	-0.208257
	-0.228551
	-0.235960
	-0.243691
	-0.311982
	-0.345806
	-0.394447
	-0.415707
	-0.459838
	-0.470469
	-0.479166
	-0.481099
	-0.517499
	-0.516211
	-0.550678
	-0.565174
	-0.623801
	-0.677274
	-0.699823
	-0.712708
	-0.745887
	-0.767792
	-0.800326
	-0.826419
	-0.895031
	-0.928533
	-0.937552
	-0.946250
	-0.943028
	-0.938519
	-0.935942
	-0.936908
	-0.965899
	-0.960101
	-0.925633
	-0.899863
	-0.918547
	-0.949471
	-0.964933
	-0.969443
	-1.006165
	-1.022593
	-1.025171
	-1.026781
	-1.023560
	-1.023882
	-1.020661
	-1.029680
	-1.087341
	-1.114722
	-1.125352
	-1.121808
	-1.125352
	-1.098937
	-1.055772
	-1.034512
	-1.081220
	-1.127607
	-1.111500
	-1.098293
	-1.026459
	-0.989737
	-0.937230
	-0.910494
	-0.861208
	-0.836082
	-0.762315
	-0.723016
	-0.679207
	-0.649249
	-0.608661
	-0.579025
	-0.542303
	-0.490763
	-0.379307
	-0.323257
	-0.287823
	-0.299419
	-0.270750
	-0.255288
	-0.215022
	-0.189252
	-0.115807
	-0.076507
	-0.036885
	-0.009827
	0.025607
	0.056532
	0.141895
	0.198268
	0.311657
	0.364164
	0.420536
	0.467889
	0.609303
	0.674696
	0.716895
	0.719472
	0.809346
	0.856376
	0.898253
	0.929822
	0.998436
	1.037735
	1.114724
	1.156601
	1.230047
	1.262260
	1.310579
	1.338283
	1.440076
	1.490006
	1.536715
	1.585357
	1.711955
	1.776703
	1.811171
	1.818580
	1.906844
	1.946789
	1.992854
	2.008638
	2.014114
	2.009604
	2.009927
	1.999940
	1.993176
	1.984156
	1.942279
	1.925528
	1.914253
	1.909099
	1.898469
	1.910710
	1.930360
	1.929071
	1.850793
	1.787011
	1.761563
	1.743201
	1.736759
	1.727417
	1.723551
	1.715176
	1.676520
	1.656548
	1.642052
	1.635609
	1.624979
	1.625301
	1.618859
	1.614027
	1.576659
	1.566351
	1.552177
	1.534138
	1.451673
	1.378871
	1.320888
	1.277078
	1.170131
	1.112469
	1.056741
	1.027749
	0.978463
	0.955914
	0.906629
	0.875060
	0.763925
	0.712385
	0.657301
	0.630242
	0.587721
	0.571937
	0.533603
	0.504290
	0.415060
	0.340648
	0.283310
	0.244010
	0.169598
	0.132876
	0.081980
	0.052988
	-0.054603
	-0.100667
	-0.128048
	-0.141577
	-0.227263
	-0.269139
	-0.312949
	-0.342262
	-0.378340
	-0.379307
	-0.346450
	-0.343873
	-0.419250
	-0.486897
	-0.545524
	-0.571294
	-0.617036
	-0.630244
	-0.639907
	-0.640874
	-0.677918
	-0.697890
	-0.770046
	-0.807091
	-0.847679
	-0.867973
	-0.869584
	-0.876348
	-0.905340
	-0.906950
	-0.900830
	-0.904373
	-0.991992
	-1.054162
	-1.081865
	-1.087663
	-1.091528
	-1.087663
	-1.086697
	-1.088307
	-1.115688
	-1.132761
	-1.135338
	-1.135016
	-1.133727
	-1.128573
	-1.126640
	-1.124707
	-1.161108
	-1.148545
	-1.113755
	-1.092495
	-1.105702
	-1.141136
	-1.152732
	-1.167550
	-1.227788
	-1.258068
	-1.263866
	-1.263866
	-1.265799
	-1.261289
	-1.261933
	-1.261611
	-1.293502
	-1.296079
	-1.264510
	-1.241639
	-1.164973
	-1.106991
	-1.014218
	-0.968154
	-0.937874
	-0.944961
	-0.887300
	-0.850256
	-0.810634
	-0.778744
	-0.739444
	-0.711419
	-0.672442
	-0.643773
	-0.570006
	-0.536183
	-0.483032
	-0.458872
	-0.412486
	-0.389615
	-0.348705
	-0.299419
	-0.192151
	-0.136423
	-0.109042
	-0.111941
	-0.088426
	-0.062334
	0.022708
	0.070061
	0.149626
	0.190215
	0.237889
	0.258184
	0.300382
	0.312623
	0.320676
	0.333239
	0.399598
	0.431166
	0.476587
	0.518785
	0.586754
	0.623799
	0.612525
	0.591909
	0.608659
	0.629275
	0.692413
	0.728491
	0.768435
	0.786152
	0.792595
	0.795494
	0.827385
	0.839626
	0.879892
	0.899864
	0.975242
	1.006167
	1.018408
	1.036125
	1.067371
	1.072525
	0.987483
	0.925312
	0.862175
	0.833505
	0.785830
	0.766180
	0.754906
	0.745242
	0.710452
	0.679205
	0.609626
	0.566782
	0.521684
	0.499780
	0.493337
	0.484318
	0.448239
	0.446951
	0.435998
	0.428267
	0.338071
	0.277189
	0.246909
	0.234668
	0.195046
	0.173786
	0.136097
	0.106139
	0.036882
	-0.011437
	-0.102277
	-0.157039
	-0.233705
	-0.279125
	-0.358691
	-0.397668
	-0.480777
	-0.497205
	-0.508480
	-0.522331
	-0.643451
	-0.724627
	-0.792273
	-0.833183
	-0.936908
	-0.990703
	-1.037411
	-1.073812
	-1.176892
	-1.231975
	-1.279650
	-1.311541
	-1.382408
	-1.419453
	-1.494186
	-1.530586
	-1.608863
	-1.620137
	-1.622714
	-1.626902
	-1.745444
	-1.822432
	-1.820821
	-1.818566
	-1.813412
	-1.808581
	-1.801494
	-1.800205
	-1.791508
	-1.779589
	-1.709688
	-1.675865
	-1.657504
	-1.647840
	-1.640753
	-1.631734
	-1.630767
	-1.594689
	-1.520922
	-1.476791
	-1.488066
	-1.516735
	-1.529298
	-1.528975
	-1.528653
	-1.522533
	-1.483234
	-1.466161
	-1.453276
	-1.450699
	-1.443934
	-1.441035
	-1.434915
	-1.415909
	-1.315406
	-1.257746
	-1.207494
	-1.154665
	-1.072201
	-1.021949
	-0.999400
	-0.994569
	-0.906306
	-0.853477
	-0.803870
	-0.767792
	-0.695313
	-0.652792
	-0.605762
	-0.577093
	-0.502681
	-0.461127
	-0.378340
	-0.338397
	-0.287178
	-0.260120
	-0.217599
	-0.167991
	-0.028188
	0.043969
	0.075859
	0.074893
	0.097442
	0.126433
	0.207609
	0.258184
	0.335494
	0.376405
	0.421180
	0.441475
	0.483673
	0.495592
	0.503967
	0.516530
	0.579990
	0.615424
	0.655046
	0.696600
	0.765858
	0.802259
	0.789051
	0.770046
	0.787763
	0.803547
	0.869262
	0.901152
	0.943351
	0.958491
	0.966867
	0.968155
	1.000046
	1.016153
	1.049332
	1.077035
	1.144360
	1.176895
	1.186237
	1.213940
	1.271602
	1.298016
	1.291896
	1.259039
	1.247442
	1.234879
	1.232946
	1.231335
	1.260971
	1.270957
	1.273212
	1.270957
	1.262582
	1.261294
	1.255173
	1.261616
	1.287386
	1.301882
	1.303170
	1.318633
	1.347624
	1.355678
	1.342148
	1.317022
	1.368563
	1.386602
	1.393367
	1.392078
	1.390468
	1.387569
	1.380482
	1.368885
	1.294795
	1.260327
	1.211041
	1.183016
	1.143394
	1.117301
	1.074780
	1.057707
	1.016153
	0.984906
	0.929500
	0.870228
	0.817399
	0.784219
	0.739766
	0.710452
	0.635074
	0.599640
	0.547455
	0.524906
	0.476909
	0.453715
	0.412483
	0.384136
	0.313590
	0.274934
	0.231125
	0.221783
	0.219206
	0.203422
	0.119991
	0.055243
	0.029151
	0.002092
	-0.080695
	-0.121283
	-0.173145
	-0.194084
	-0.238859
	-0.254321
	-0.265596
	-0.277192
	-0.344195
	-0.373186
	-0.416029
	-0.440833
	-0.476589
	-0.474656
	-0.440511
	-0.433746
	-0.478522
	-0.528774
	-0.545524
	-0.563563
	-0.633787
	-0.659235
	-0.674053
	-0.679207
	-0.713030
	-0.723338
	-0.731713
	-0.735579
	-0.766503
	-0.776167
	-0.743310
	-0.732358
	-0.723338
	-0.693702
	-0.617681
	-0.585468
	-0.594810
	-0.613171
	-0.561631
	-0.534572
	-0.526519
	-0.511057
	-0.479488
	-0.458872
	-0.453074
	-0.444699
	-0.413130
	-0.394447
	-0.353214
	-0.326800
	-0.249490
	-0.216310
	-0.202459
	-0.167669
	-0.102922
	-0.061689
	-0.040429
	-0.039140
	0.028506
	0.065873
	0.075215
	0.099374
	0.196657
	0.244976
	0.295550
	0.328407
	0.432133
	0.478197
	0.532315
	0.570326
	0.672763
	0.726881
	0.771979
	0.825452
	0.922091
	0.982329
	1.041923
	1.059962
	1.121811
	1.150481
	1.193646
	1.224893
	1.325720
	1.371784
	1.422037
	1.454894
	1.550889
	1.601141
	1.641086
	1.680064
	1.777669
	1.828566
	1.872054
	1.908133
	1.936158
	1.946789
	1.935192
	1.900402
	1.888483
	1.871410
	1.832110
	1.812138
	1.801185
	1.794098
	1.783146
	1.781213
	1.768972
	1.753832
	1.684251
	1.655582
	1.638509
	1.630777
	1.624335
	1.631422
	1.656548
	1.655582
	1.610161
	1.565385
	1.545091
	1.531239
	1.526407
	1.520931
	1.514166
	1.506757
	1.464558
	1.442975
	1.396266
	1.365664
	1.289641
	1.251307
	1.202666
	1.163044
	1.059318
	1.018408
	0.995536
	0.976853
	0.924024
	0.867329
	0.816432
	0.771012
	0.663743
	0.610914
	0.553897
	0.526516
	0.481741
	0.452105
	0.375116
	0.333239
	0.253352
	0.214696
	0.169598
	0.135453
	0.066195
	0.045579
	0.035915
	0.014333
	-0.100345
	-0.191829
	-0.303285
	-0.361912
	-0.449208
	-0.491085
	-0.573227
	-0.615104
	-0.691770
	-0.730425
	-0.777777
	-0.814178
	-0.913715
	-0.967188
	-1.011319
	-1.050618
	-1.147578
	-1.174637
	-1.183657
	-1.200085
	-1.321849
	-1.406246
	-1.474214
	-1.505782
	-1.580516
	-1.619815
	-1.690683
	-1.734814
	-1.806004
	-1.845947
	-1.885569
	-1.921647
	-2.014741
	-2.049208
	-2.029881
	-2.015063
	-2.007976
	-1.976730
	-1.929700
	-1.899742
	-1.918747
	-1.934210
	-1.884602
	-1.856577
	-1.844336
	-1.833706
	-1.825331
	-1.821466
	-1.813412
	-1.807292
	-1.769603
	-1.750598
	-1.738679
	-1.732881
	-1.722251
	-1.718063
	-1.711943
	-1.673610
	-1.599843
	-1.559255
	-1.568597
	-1.595978
	-1.612728
	-1.610151
	-1.612084
	-1.585992
	-1.489032
	-1.431694
	-1.380798
	-1.347941
	-1.305098
	-1.280939
	-1.234230
	-1.195897
	-1.087341
	-1.031291
	-0.974597
	-0.917580
	-0.800004
	-0.745887
	-0.713674
	-0.714641
	-0.655369
	-0.617036
	-0.539726
	-0.496883
	-0.453718
	-0.421828
	-0.387038
	-0.346772
	-0.248523
	-0.193762
	-0.145442
	-0.112585
	-0.071675
	-0.036885
	0.050733
	0.117414
	0.232091
	0.285564
	0.319388
	0.313590
	0.340004
	0.360942
	0.425368
	0.462735
	0.502357
	0.531670
	0.565494
	0.590298
	0.622511
	0.651824
	0.716895
	0.756839
	0.797749
	0.822231
	0.860564
	0.898898
	0.966867
	1.006167
	1.064150
	1.068338
	1.101195
	1.116013
	1.148548
	1.170775
	1.202988
	1.232624
	1.295761
	1.330229
	1.364053
	1.383059
	1.384347
	1.386280
	1.386602
	1.382092
	1.378549
	1.396910
	1.454894
	1.472289
	1.468423
	1.436855
	1.423325
	1.415272
	1.405930
	1.416883
	1.473255
	1.500959
	1.503858
	1.507401
	1.497737
	1.496771
	1.491617
	1.498382
	1.522219
	1.532205
	1.535749
	1.547023
	1.572472
	1.578270
	1.565707
	1.538648
	1.558298
	1.566351
	1.599853
	1.622402
	1.684896
	1.712921
	1.718397
	1.726773
	1.749966
	1.768972
	1.798608
	1.822124
	1.853370
	1.867544
	1.867544
	1.894925
	1.976747
	2.014759
	2.043428
	2.035053
	2.063078
	2.069199
	2.068233
	2.071776
	2.097224
	2.118807
	2.175503
	2.212226
	2.243151
	2.258291
	2.259257
	2.259257
	2.254425
	2.244117
	2.203850
	2.183556
	2.135880
	2.098835
	2.042784
	1.993820
	1.972237
	1.949044
	1.911032
	1.884617
	1.838230
	1.806983
	1.727739
	1.694559
	1.672010
	1.658481
	1.616926
	1.592766
	1.552822
	1.522219
	1.481631
	1.473578
	1.491295
	1.479376
	1.404319
	1.336672
	1.281266
	1.247442
	1.203954
	1.173674
	1.132119
	1.101839
	1.024206
	0.985550
	0.932399
	0.893421
	0.787441
	0.738477
	0.685326
	0.655690
	0.615424
	0.605438
	0.595452
	0.567749
	0.453071
	0.369318
	0.309724
	0.269458
	0.232091
	0.197623
	0.127077
	0.083268
	0.005313
	-0.035919
	-0.085205
	-0.116451
	-0.189896
	-0.221142
	-0.267529
	-0.302963
	-0.404433
	-0.441799
	-0.503648
	-0.531995
	-0.596420
	-0.656336
	-0.705621
	-0.746209
	-0.812889
	-0.851544
	-0.891488
	-0.917258
	-0.951081
	-0.973308
	-1.012608
	-1.038700
	-1.110856
	-1.120842
	-1.068013
	-1.037411
	-1.028392
	-0.995857
	-0.955913
	-0.936264
	-0.947538
	-0.975563
	-0.952048
	-0.943028
	-0.935942
	-0.932398
	-0.926922
	-0.925633
	-0.924023
	-0.918225
	-0.922412
	-0.923701
	-0.955913
	-0.964289
	-0.969765
	-0.976852
	-1.042243
	-1.042243
	-1.013574
	-1.008098
	-1.049330
	-1.099904
	-1.115044
	-1.130184
	-1.159497
	-1.165617
	-1.136626
	-1.121164
	-1.114722
	-1.108923
	-1.108601
	-1.102481
	-1.103769
	-1.087341
	-1.058672
	-1.036445
	-1.030002
	-1.000367
	-0.958168
	-0.938196
	-0.951081
	-0.971053
	-0.915970
	-0.888589
	-0.841881
	-0.815466
	-0.774556
	-0.749430
	-0.705943
	-0.675663
	-0.605118
	-0.565496
	-0.524586
	-0.492695
	-0.452107
	-0.412808
	-0.329055
	-0.252389
	-0.146409
	-0.085205
	-0.057502
	-0.058790
	-0.033664
	-0.022390
	-0.018202
	-0.002096
	0.062330
	0.094220
	0.140285
	0.161223
	0.199878
	0.217273
	0.225004
	0.234990
	0.269136
	0.298450
	0.361265
	0.419570
	0.489472
	0.522973
	0.513631
	0.496881
	0.510732
	0.530704
	0.558085
	0.590298
	0.656334
	0.689836
	0.696923
	0.710774
	0.738477
	0.748141
	0.753939
	0.754261
	0.757161
	0.752329
	0.755228
	0.773911
	0.834150
	0.857343
	0.848967
	0.819332
	0.809023
	0.800004
	0.795494
	0.801614
	0.827385
	0.841236
	0.843491
	0.843491
	0.836082
	0.838015
	0.830284
	0.846713
	0.905984
	0.934010
	0.939808
	0.962357
	0.989738
	1.000046
	0.985872
	0.940774
	0.865396
	0.820298
	0.773911
	0.742021
	0.706586
	0.677917
	0.638939
	0.602539
	0.530704
	0.485606
	0.441797
	0.416671
	0.376727
	0.353856
	0.312945
	0.301027
	0.261083
	0.242399
	0.179906
	0.125467
	0.073604
	0.042036
	0.001448
	-0.032054
	-0.099700
	-0.138678
	-0.178299
	-0.209868
	-0.246590
	-0.277515
	-0.344517
	-0.393158
	-0.476911
	-0.522653
	-0.570972
	-0.573227
	-0.578059
	-0.591266
	-0.675341
	-0.741377
	-0.801937
	-0.828029
	-0.870550
	-0.890522
	-0.929821
	-0.953014
	-1.026137
	-1.051585
	-1.064148
	-1.067691
	-1.066403
	-1.063504
	-1.058994
	-1.064148
	-1.088629
	-1.080898
	-1.039988
	-1.026137
	-1.039022
	-1.072201
	-1.081543
	-1.094750
	-1.124063
	-1.134693
	-1.139525
	-1.144035
	-1.174637
	-1.199119
	-1.269020
	-1.298978
	-1.343109
	-1.352451
	-1.359215
	-1.363403
	-1.394971
	-1.395615
	-1.421708
	-1.435237
	-1.491609
	-1.535418
	-1.522855
	-1.500628
	-1.432338
	-1.393361
	-1.342143
	-1.321204
	-1.307353
	-1.295112
	-1.258068
	-1.226499
	-1.153055
	-1.110534
	-1.066725
	-1.039666
	-1.033546
	-0.985549
	-0.886334
	-0.820620
	-0.764248
	-0.750719
	-0.721727
	-0.696924
	-0.660201
	-0.618003
	-0.517821
	-0.464348
	-0.412808
	-0.387360
	-0.343873
	-0.310372
	-0.223719
	-0.171213
	-0.092614
	-0.052025
	-0.003062
	0.040747
	0.115481
	0.147049
	0.138996
	0.126755
	0.174108
	0.205677
	0.242721
	0.271069
	0.302959
	0.324864
	0.325830
	0.337427
	0.365774
	0.381237
	0.383169
	0.402819
	0.465634
	0.490760
	0.502679
	0.530704
	0.591586
	0.618645
	0.608659
	0.587077
	0.608337
	0.610270
	0.615746
	0.613169
	0.614135
	0.603183
	0.573225
	0.553575
	0.546488
	0.533925
	0.500102
	0.486250
	0.480130
	0.463379
	0.395410
	0.391545
	0.406685
	0.411517
	0.358688
	0.317455
	0.294262
	0.281377
	0.242399
	0.221139
	0.182161
	0.151559
	0.082624
	0.052022
	0.036882
	0.023674
	-0.007894
	-0.033664
	-0.065555
	-0.099700
	-0.164448
	-0.175722
	-0.150596
	-0.162193
	-0.252711
	-0.328733
	-0.385105
	-0.416029
	-0.456939
	-0.471113
	-0.477233
	-0.494306
	-0.560342
	-0.590944
	-0.638297
	-0.660846
	-0.699501
	-0.708520
	-0.715607
	-0.718506
	-0.753296
	-0.758450
	-0.786797
	-0.807413
	-0.862819
	-0.913071
	-0.931110
	-0.950437
	-0.978784
	-1.002300
	-1.033224
	-1.064148
	-1.126318
	-1.139525
	-1.087019
	-1.053195
	-1.012930
	-0.981683
	-0.943350
	-0.920802
	-0.912426
	-0.875382
	-0.806769
	-0.752974
	-0.703688
	-0.694347
	-0.666966
	-0.649893
	-0.646672
	-0.629599
	-0.598997
	-0.573549
	-0.534894
	-0.503003
	-0.435357
	-0.404755
	-0.389937
	-0.379951
	-0.340007
	-0.319391
	-0.278803
	-0.221787
	-0.102922
	-0.051059
	-0.049771
	-0.059112
	-0.011115
	0.023030
	0.058142
	0.086489
	0.119991
	0.158324
	0.219850
	0.260761
	0.297805
	0.325186
	0.362231
	0.388001
	0.425046
	0.458869
	0.524262
	0.578057
	0.651180
	0.688547
	0.712707
	0.705620
	0.730102
	0.753617
	0.820942
	0.854444
	0.897609
	0.921769
	0.958169
	0.976853
	1.009710
	1.039990
	1.101195
	1.131797
	1.140173
	1.145327
	1.140817
	1.159823
	1.180439
	1.178828
	1.097329
	1.044500
	1.015831
	1.006811
	0.996181
	0.993926
	0.990382
	0.977175
	0.943351
	0.926279
	0.917259
	0.907595
	0.909528
	0.902441
	0.904052
	0.893099
	0.861853
	0.862175
	0.885690
	0.894388
	0.876026
	0.849290
	0.829640
	0.816755
	0.777777
	0.772945
	0.791628
	0.805480
	0.803869
	0.812567
	0.839626
	0.848323
	0.851867
	0.859920
	0.892133
	0.899864
	0.908561
	0.939486
	1.030326
	1.064794
	1.063506
	1.044822
	1.061573
	1.069626
	1.065761
	1.075102
	1.102483
	1.115369
	1.112469
	1.132441
	1.188492
	1.211363
	1.221672
	1.230047
	1.260005
	1.269025
	1.274501
	1.284165
	1.313479
	1.319599
	1.305748
	1.278044
	1.262260
	1.245831
	1.208464
	1.195579
	1.180761
	1.178828
	1.171097
	1.168198
	1.160145
	1.142105
	1.073492
	1.044500
	1.033226
	1.025172
	1.022917
	1.034836
	1.060607
	1.057707
	1.017119
	0.969444
	0.952371
	0.942385
	0.936587
	0.933365
	0.929500
	0.919514
	0.882147
	0.852511
	0.777455
	0.740088
	0.693379
	0.669542
	0.627343
	0.606082
	0.564528
	0.544878
	0.506867
	0.478519
	0.423113
	0.364164
	0.315844
	0.279444
	0.243688
	0.205999
	0.140607
	0.101307
	0.059753
	0.029151
	-0.010149
	-0.036563
	-0.075863
	-0.106465
	-0.174112
	-0.208257
	-0.252389
	-0.256254
	-0.263341
	-0.276548
	-0.359979
	-0.415707
	-0.443088
	-0.472079
	-0.551645
	-0.593843
	-0.637008
	-0.664711
	-0.700145
	-0.716573
	-0.722050
	-0.744921
	-0.799038
	-0.835760
	-0.871194
	-0.895676
	-0.929499
	-0.923056
	-0.888589
	-0.880536
	-0.926922
	-0.988770
	-1.068980
	-1.108601
	-1.151122
	-1.164651
	-1.173993
	-1.177858
	-1.209427
	-1.228432
	-1.263222
	-1.292857
	-1.357927
	-1.379831
	-1.386274
	-1.386918
	-1.383053
	-1.360504
	-1.315728
	-1.305420
	-1.346008
	-1.394971
	-1.410111
	-1.413654
	-1.415909
	-1.411400
	-1.409467
	-1.410755
	-1.445223
	-1.451987
	-1.459074
	-1.452954
	-1.453276
	-1.444901
	-1.441357
	-1.453276
	-1.508359
	-1.510936
	-1.475180
	-1.460363
	-1.472603
	-1.507715
	-1.515446
	-1.530908
	-1.557323
	-1.557645
	-1.528331
	-1.493864
	-1.427184
	-1.382408
	-1.341820
	-1.305420
	-1.267409
	-1.223922
	-1.154343
	-1.108923
	-1.064470
	-1.013252
	-0.929821
	-0.888589
	-0.864752
	-0.863785
	-0.805480
	-0.773268
	-0.727848
	-0.699823
	-0.661812
	-0.633143
	-0.595776
	-0.558409
	-0.495595
	-0.452107
	-0.412808
	-0.378340
	-0.341296
	-0.299419
	-0.217277
	-0.132879
	0.006924
	0.075537
	0.111293
	0.125467
	0.214374
	0.259472
	0.304570
	0.347091
	0.448883
	0.496558
	0.544233
	0.579023
	0.645382
	0.687903
	0.765536
	0.812889
	0.884724
	0.926601
	0.963323
	1.027427
	1.145971
	1.212330
	1.240033
	1.264193
	1.342793
	1.388213
	1.426869
	1.474866
	1.565063
	1.613705
	1.658159
	1.669111
	1.675876
	1.670077
	1.669755
	1.662991
	1.664601
	1.648817
	1.613060
	1.612094
	1.626590
	1.633999
	1.613705
	1.588578
	1.567640
	1.543158
	1.473900
	1.445552
	1.429124
	1.422359
	1.414950
	1.407219
	1.403675
	1.386924
	1.354389
	1.335706
	1.331840
	1.321854
	1.320888
	1.329585
	1.356644
	1.353101
	1.311224
	1.257106
	1.207498
	1.164654
	1.088954
	1.049010
	1.001335
	0.955270
	0.851222
	0.801292
	0.747497
	0.715606
	0.675018
	0.648925
	0.610914
	0.562917
	0.465312
	0.426012
	0.411194
	0.394766
	0.342581
	0.274290
	0.199234
	0.141251
	0.069094
	0.025285
	-0.018846
	-0.056535
	-0.124504
	-0.162515
	-0.208579
	-0.250778
	-0.349671
	-0.411519
	-0.504936
	-0.523297
	-0.587401
	-0.599319
	-0.600930
	-0.618969
	-0.697568
	-0.769080
	-0.823197
	-0.857987
	-0.891166
	-0.918225
	-0.951404
	-0.985549
	-1.047075
	-1.087019
	-1.123419
	-1.152732
	-1.185911
	-1.207816
	-1.237774
	-1.269664
	-1.332157
	-1.342465
	-1.343109
	-1.346652
	-1.401736
	-1.468416
	-1.549592
	-1.586314
	-1.630767
	-1.632378
	-1.608541
	-1.589535
	-1.585347
	-1.576972
	-1.574717
	-1.572140
	-1.565376
	-1.540250
	-1.475180
	-1.443934
	-1.427828
	-1.401092
	-1.348907
	-1.328613
	-1.339566
	-1.365013
	-1.340854
	-1.332801
	-1.323137
	-1.319272
	-1.313151
	-1.309286
	-1.304776
	-1.291891
	-1.261289
	-1.241961
	-1.238740
	-1.227788
	-1.223922
	-1.213936
	-1.213936
	-1.184623
	-1.146290
	-1.130184
	-1.176248
	-1.221023
	-1.239384
	-1.254524
	-1.287703
	-1.301233
	-1.300588
	-1.321849
	-1.376610
	-1.400769
	-1.407212
	-1.421385
	-1.446189
	-1.457786
	-1.456819
	-1.462940
	-1.490643
	-1.475825
	-1.435237
	-1.423962
	-1.470026
	-1.514158
	-1.535096
	-1.556034
	-1.619493
	-1.636565
	-1.648484
	-1.653960
	-1.683596
	-1.680375
	-1.656859
	-1.638820
	-1.632056
	-1.623680
	-1.616272
	-1.612084
	-1.605964
	-1.559255
	-1.451343
	-1.404957
	-1.402058
	-1.435559
	-1.443612
	-1.449088
	-1.445223
	-1.431049
	-1.398515
	-1.379831
	-1.371778
	-1.365336
	-1.365013
	-1.357927
	-1.357927
	-1.339566
	-1.307031
	-1.286093
	-1.279972
	-1.247115
	-1.205883
	-1.179791
	-1.194931
	-1.216836
	-1.201696
	-1.169161
	-1.104091
	-1.063181
	-1.018084
	-0.984583
	-0.943995
	-0.907917
	-0.837371
	-0.800971
	-0.754907
	-0.724949
	-0.680495
	-0.654403
	-0.613815
	-0.558409
	-0.451463
	-0.394125
	-0.365455
	-0.370287
	-0.350315
	-0.325189
	-0.295554
	-0.254966
	-0.192151
	-0.150274
	-0.112263
	-0.081017
	-0.046871
	-0.007250
	0.074571
	0.130299
	0.202778
	0.245298
	0.289108
	0.334206
	0.405718
	0.434388
	0.428267
	0.415704
	0.465634
	0.490116
	0.530060
	0.554219
	0.590942
	0.602861
	0.608659
	0.619934
	0.645704
	0.677595
	0.739121
	0.778099
	0.813211
	0.832539
	0.833827
	0.866362
	0.921769
	0.962679
	0.978786
	0.986839
	1.036447
	1.058352
	1.064794
	1.076713
	1.106349
	1.114080
	1.118268
	1.115046
	1.113758
	1.106027
	1.106671
	1.111503
	1.139850
	1.149514
	1.151447
	1.165943
	1.193002
	1.207176
	1.186237
	1.170775
	1.181405
	1.188492
	1.184304
	1.185593
	1.180761
	1.177218
	1.174963
	1.188492
	1.246798
	1.265159
	1.275467
	1.270957
	1.274501
	1.271602
	1.267736
	1.260649
	1.225859
	1.201699
	1.144038
	1.088632
	1.032903
	1.002623
	0.958169
	0.919514
	0.847357
	0.806769
	0.761026
	0.728491
	0.691768
	0.656656
	0.621222
	0.583211
	0.520396
	0.478519
	0.439542
	0.426334
	0.421503
	0.410872
	0.356111
	0.289430
	0.208254
	0.167021
	0.119346
	0.093254
	0.053954
	0.018198
	-0.046549
	-0.103566
	-0.189896
	-0.250456
	-0.319069
	-0.376085
	-0.441155
	-0.494628
	-0.560664
	-0.582569
	-0.582247
	-0.616070
	-0.725593
	-0.806447
	-0.871516
	-0.924667
	-1.022593
	-1.070590
	-1.117621
	-1.163363
	-1.261289
	-1.311863
	-1.357282
	-1.397870
	-1.460041
	-1.507071
	-1.567631
	-1.618204
	-1.681019
	-1.701313
	-1.691649
	-1.718063
	-1.825331
	-1.887823
	-1.890078
	-1.882669
	-1.881381
	-1.873650
	-1.871717
	-1.862053
	-1.861409
	-1.833062
	-1.768959
	-1.739001
	-1.722251
	-1.713554
	-1.704212
	-1.701313
	-1.692615
	-1.656859
	-1.577616
	-1.541861
	-1.547981
	-1.580193
	-1.594367
	-1.593723
	-1.594367
	-1.576650
	-1.546048
	-1.524466
	-1.516413
	-1.511259
	-1.505138
	-1.505460
	-1.498374
	-1.461973
	-1.366302
	-1.313151
	-1.259678
	-1.206527
	-1.126318
	-1.073489
	-1.054162
	-1.035156
	-0.955591
	-0.903729
	-0.858953
	-0.813211
	-0.745243
	-0.705299
	-0.659879
	-0.622190
	-0.553255
	-0.506869
	-0.429559
	-0.389293
	-0.341618
	-0.311982
	-0.272038
	-0.205680
	-0.073930
	-0.003706
	0.023674
	0.024963
	0.045901
	0.085523
	0.158002
	0.229192
	0.324542
	0.382203
	0.424724
	0.478519
	0.569037
	0.619612
	0.667609
	0.716895
	0.812567
	0.861208
	0.906306
	0.958491
	1.058030
	1.117946
	1.175607
	1.198478
	1.251630
	1.285453
	1.318633
	1.370174
	1.453283
	1.506113
	1.545413
	1.592444
	1.682963
	1.729672
	1.771871
	1.816647
	1.910066
	1.955164
	1.996719
	2.025067
	2.055025
	2.065655
	2.048260
	2.022812
	2.000907
	1.984156
	1.943889
	1.927783
	1.914898
	1.906522
	1.900724
	1.890738
	1.887194
	1.853048
	1.792165
	1.760274
	1.749966
	1.739980
	1.732249
	1.745456
	1.763818
	1.764462
	1.716464
	1.675876
	1.650427
	1.643985
	1.632388
	1.627556
	1.624013
	1.605329
	1.571827
	1.539937
	1.502569
	1.456827
	1.391434
	1.347302
	1.302526
	1.252596
	1.151125
	1.113758
	1.091531
	1.076069
	1.020340
	0.966545
	0.914682
	0.856054
	0.757805
	0.701110
	0.653435
	0.617035
	0.583211
	0.535858
	0.472721
	0.420214
	0.348379
	0.305859
	0.263660
	0.224682
	0.155103
	0.135775
	0.126755
	0.095187
	-0.013370
	-0.082305
	-0.115162
	-0.156073
	-0.231450
	-0.278481
	-0.318103
	-0.349671
	-0.382850
	-0.400567
	-0.402500
	-0.432136
	-0.489152
	-0.522975
	-0.561953
	-0.586112
	-0.622835
	-0.615426
	-0.585146
	-0.576126
	-0.623801
	-0.690159
	-0.766181
	-0.810312
	-0.850256
	-0.867973
	-0.869261
	-0.885046
	-0.909205
	-0.932720
	-0.965899
	-1.001333
	-1.062215
	-1.061571
	-1.014540
	-0.975241
	-0.939163
	-0.886978
	-0.808702
	-0.774556
	-0.778422
	-0.799360
	-0.781643
	-0.752974
	-0.683072
	-0.646994
	-0.602541
	-0.583857
	-0.576448
	-0.560342
	-0.532961
	-0.504292
	-0.473046
	-0.427948
	-0.362234
	-0.331632
	-0.321646
	-0.282347
	-0.217277
	-0.175078
	-0.150596
	-0.143510
	-0.075219
	-0.050737
	-0.036241
	-0.011437
	0.050733
	0.087456
	0.125467
	0.156069
	0.186993
	0.203422
	0.204388
	0.235957
	0.291041
	0.329374
	0.368674
	0.411194
	0.480774
	0.509766
	0.504934
	0.483351
	0.502357
	0.505900
	0.507189
	0.533603
	0.588365
	0.612525
	0.618323
	0.634752
	0.656656
	0.670186
	0.671152
	0.687581
	0.715928
	0.727847
	0.731390
	0.742665
	0.778743
	0.775844
	0.736544
	0.691124
	0.672119
	0.650536
	0.616712
	0.601895
	0.591586
	0.568071
	0.504612
	0.479164
	0.464023
	0.448561
	0.414416
	0.402175
	0.397343
	0.378982
	0.350634
	0.339682
	0.339682
	0.314878
	0.242399
	0.179906
	0.156391
	0.133198
	0.097442
	0.074571
	0.035915
	0.001448
	-0.067488
	-0.120317
	-0.208579
	-0.254966
	-0.297809
	-0.325512
	-0.358691
	-0.397346
	-0.458228
	-0.482387
	-0.480132
	-0.493662
	-0.537471
	-0.598997
	-0.646672
	-0.689515
	-0.757806
	-0.792595
	-0.834794
	-0.857665
	-0.894387
	-0.918225
	-0.954947
	-0.989414
	-1.049974
	-1.086697
	-1.119553
	-1.151122
	-1.182368
	-1.201373
	-1.218124
	-1.235519
	-1.285126
	-1.334089
	-1.357927
	-1.361148
	-1.363403
	-1.360182
	-1.360182
	-1.365336
	-1.390461
	-1.399159
	-1.400769
	-1.402380
	-1.396260
	-1.395938
	-1.386918
	-1.398515
	-1.419453
	-1.409789
	-1.366302
	-1.344720
	-1.357282
	-1.391750
	-1.407856
	-1.432338
	-1.490320
	-1.508682
	-1.518023
	-1.514480
	-1.514802
	-1.510292
	-1.507393
	-1.517379
	-1.540250
	-1.548625
	-1.544760
	-1.558289
	-1.579549
	-1.582448
	-1.566020
	-1.578261
	-1.652028
	-1.712265
	-1.739968
	-1.756718
	-1.788287
	-1.805681
	-1.837572
	-1.855933
	-1.887179
	-1.899420
	-1.899420
	-1.924224
	-1.976408
	-2.012164
	-2.038900
	-2.064026
	-2.092373
	-2.080132
	-2.033746
	-2.020539
	-2.064026
	-2.131028
	-2.210271
	-2.246349
	-2.285648
	-2.282749
	-2.256979
	-2.214459
	-2.147779
	-2.106225
	-2.061127
	-2.041155
	-2.025049
	-2.007976
	-1.964489
	-1.936787
	-1.896521
	-1.828874
	-1.714520
	-1.659114
	-1.659759
	-1.675865
	-1.662980
	-1.635921
	-1.605641
	-1.570852
	-1.534129
	-1.512869
	-1.501595
	-1.473248
	-1.410433
	-1.371456
	-1.327325
	-1.297689
	-1.252592
	-1.236485
	-1.224567
	-1.160463
	-1.030969
	-0.955591
	-0.924023
	-0.925633
	-0.908561
	-0.881824
	-0.847357
	-0.791951
	-0.696602
	-0.643129
	-0.594165
	-0.553255
	-0.484642
	-0.447598
	-0.402500
	-0.362556
	-0.292977
	-0.239504
	-0.169924
	-0.107754
	-0.028832
	0.019809
	0.039781
	0.061041
	0.132876
	0.182806
	0.219528
	0.252385
	0.286209
	0.335172
	0.409262
	0.463057
	0.532637
	0.570326
	0.612525
	0.637973
	0.676951
	0.711740
	0.774878
	0.826096
	0.899542
	0.941096
	0.965256
	0.959458
	0.976531
	1.010676
	1.062539
	1.100873
	1.133086
	1.163044
	1.191069
	1.217484
	1.246153
	1.279655
	1.343437
	1.378227
	1.417849
	1.440076
	1.474866
	1.509978
	1.572794
	1.623691
	1.671044
	1.664923
	1.657192
	1.654937
	1.644629
	1.643663
	1.638186
	1.610483
	1.546057
	1.516421
	1.502891
	1.489684
	1.486785
	1.479698
	1.479054
	1.457793
	1.428157
	1.422037
	1.448451
	1.455216
	1.443942
	1.408185
	1.390790
	1.371462
	1.333451
	1.318633
	1.307036
	1.305425
	1.295117
	1.293829
	1.285453
	1.269991
	1.234557
	1.236167
	1.256462
	1.262904
	1.265159
	1.288352
	1.344725
	1.367597
	1.361476
	1.339249
	1.354711
	1.355356
	1.355678
	1.377905
	1.432989
	1.453283
	1.456182
	1.470034
	1.491295
	1.499992
	1.498704
	1.514488
	1.538004
	1.546379
	1.548634
	1.583746
	1.667823
	1.700036
	1.700358
	1.680386
	1.696814
	1.696492
	1.695204
	1.691338
	1.687795
	1.682963
	1.675554
	1.672977
	1.663957
	1.646240
	1.611772
	1.601464
	1.589223
	1.585679
	1.580847
	1.587612
	1.612416
	1.595343
	1.527051
	1.465846
	1.443942
	1.424936
	1.421070
	1.413983
	1.411728
	1.391112
	1.358255
	1.344725
	1.330552
	1.326364
	1.318633
	1.319277
	1.310902
	1.298339
	1.266448
	1.237456
	1.205243
	1.176251
	1.126643
	1.062539
	1.015508
	0.974920
	0.938197
	0.890522
	0.825452
	0.780354
	0.741376
	0.706264
	0.668897
	0.636684
	0.601895
	0.559374
	0.496558
	0.459192
	0.414738
	0.399920
	0.396054
	0.384780
	0.335816
	0.267203
	0.186349
	0.144150
	0.100341
	0.071027
	0.034627
	-0.004673
	-0.067165
	-0.130302
	-0.209868
	-0.262375
	-0.299741
	-0.332920
	-0.362234
	-0.407010
	-0.464670
	-0.487864
	-0.486253
	-0.496239
	-0.539404
	-0.600930
	-0.651182
	-0.693702
	-0.762638
	-0.785831
	-0.798071
	-0.797105
	-0.799360
	-0.796783
	-0.796783
	-0.809668
	-0.834150
	-0.844136
	-0.843491
	-0.845424
	-0.838659
	-0.822875
	-0.778744
	-0.771979
	-0.808380
	-0.857343
	-0.874415
	-0.892454
	-0.922734
	-0.959457
	-1.020661
	-1.052229
	-1.095072
	-1.104736
	-1.112467
	-1.125996
	-1.155309
	-1.190421
	-1.245183
	-1.283516
	-1.314118
	-1.301877
	-1.231331
	-1.171094
	-1.120198
	-1.116010
	-1.090884
	-1.073812
	-1.069624
	-1.047719
	-1.018084
	-0.972020
	-0.911138
	-0.868295
	-0.827385
	-0.811923
	-0.800971
	-0.770369
	-0.707876
	-0.655369
	-0.583535
	-0.526197
	-0.442766
	-0.392836
	-0.369321
	-0.347738
	-0.272361
	-0.224364
	-0.187963
	-0.151885
	-0.119028
	-0.065233
	0.008534
	0.067484
	0.133198
	0.173464
	0.215663
	0.244332
	0.281699
	0.294906
	0.302959
	0.341293
	0.436320
	0.485928
	0.515242
	0.509766
	0.531670
	0.537791
	0.542301
	0.556152
	0.580634
	0.620900
	0.677595
	0.713995
	0.745564
	0.762637
	0.764570
	0.780998
	0.809990
	0.834150
	0.864430
	0.914360
	1.011965
	1.047721
	1.049332
	1.019374
	1.007777
	0.967189
	0.908239
	0.866040
	0.826096
	0.794205
	0.756194
	0.740088
	0.725914
	0.711740
	0.675984
	0.637973
	0.574836
	0.538757
	0.496558
	0.492693
	0.519752
	0.516853
	0.477231
	0.415060
	0.370284
	0.317133
	0.256895
	0.228226
	0.217918
	0.196335
	0.168632
	0.139963
	0.103562
	0.062974
	-0.000485
	-0.057502
	-0.140288
	-0.181843
	-0.228229
	-0.241436
	-0.239181
	-0.260442
	-0.332276
	-0.405399
	-0.457906
	-0.497527
	-0.530384
	-0.560664
	-0.589656
	-0.634431
	-0.691770
	-0.689837
	-0.645383
	-0.622190
	-0.616392
	-0.609305
	-0.606728
	-0.599964
	-0.599319
	-0.566785
	-0.494950
	-0.468214
	-0.468214
	-0.503970
	-0.514922
	-0.522975
	-0.520720
	-0.519110
	-0.519432
	-0.530706
	-0.559376
	-0.569362
	-0.577415
	-0.603829
	-0.662778
	-0.680173
	-0.688871
	-0.702722
	-0.730747
	-0.725915
	-0.685005
	-0.684683
	-0.719473
	-0.756195
	-0.742988
	-0.740411
	-0.732680
	-0.729781
	-0.730103
	-0.724949
	-0.726559
	-0.708198
	-0.685649
	-0.668254
	-0.665677
	-0.658591
	-0.653759
	-0.652148
	-0.647316
	-0.606728
	-0.503326
	-0.449208
	-0.416029
	-0.423116
	-0.401856
	-0.381562
	-0.346128
	-0.304251
	-0.243369
	-0.200848
	-0.164126
	-0.133202
	-0.103566
	-0.048482
	0.022064
	0.098408
	0.194724
	0.249164
	0.292329
	0.367385
	0.493337
	0.557119
	0.593519
	0.616068
	0.695956
	0.737833
	0.779065
	0.821586
	0.878925
	0.936587
	0.997469
	1.053520
	1.113114
	1.154024
	1.190103
	1.245509
	1.333129
	1.378549
	1.421714
	1.486785
	1.604363
	1.664279
	1.698747
	1.726773
	1.797642
	1.841451
	1.875920
	1.889449
	1.889127
	1.891382
	1.881074
	1.879141
	1.871410
	1.852726
	1.818258
	1.803118
	1.795387
	1.784112
	1.781535
	1.783790
	1.810205
	1.787011
	1.724840
	1.667178
	1.640119
	1.628200
	1.616604
	1.612738
	1.603718
	1.590833
	1.555077
	1.538004
	1.529306
	1.519320
	1.517065
	1.508368
	1.509978
	1.488396
	1.458115
	1.438465
	1.432989
	1.402387
	1.325397
	1.258072
	1.200089
	1.134052
	1.040635
	0.985872
	0.938842
	0.901152
	0.868939
	0.829640
	0.794850
	0.732679
	0.639584
	0.587399
	0.540690
	0.511054
	0.471110
